-0.0044998,-0.0041995,-0.0039029,-0.0036062,-0.0035491,-0.0035565,-0.0036114,-0.0036858,-0.0037472,-0.0037851,-0.0037654,-0.0036549,-0.0034283,-0.0030997,-0.0026662,-0.0021366,-0.0015348,-0.0009303,-0.00037802,5.418e-05,0.00028493,0.00019678,-0.00030252,-0.0012961,-0.0028541,-0.0050485,-0.0079073,-0.011422,-0.015551,-0.020228,-0.025342,-0.030737,-0.03622,-0.041568,-0.04654,-0.050865,-0.054264,-0.056449,-0.057157,-0.056132,-0.053131,-0.047926,-0.040339,-0.030219,-0.01745,-0.0019394,0.016331,0.03734,0.061014,0.087252,0.11587,0.14665,0.17932,0.2136,0.24913,0.28551,0.32232,0.35907,0.39525,0.43027,0.46353,0.49444,0.52239,0.54679,0.56714,0.58299,0.59403,0.60003,0.60091,0.59672,0.58768,0.57411,0.55647,0.53533,0.51131,0.4851,0.45737,0.42879,0.39997,0.37145,0.34367,0.31698,0.29163,0.26778,0.24549,0.22479,0.20568,0.18813,0.17213,0.15761,0.14459,0.13298,0.12273,0.11369,0.10577,0.098798,0.092571,0.086871,0.081523,0.076329,0.071116,0.065737,0.060138,0.054287,0.048198,0.041922,0.035581,0.029291,0.023177,0.017354,0.011953,0.0070668,0.00276,-0.00093536,-0.0040077,-0.0064778,-0.0083866,-0.0097854,-0.010736,-0.011294,-0.011518,-0.011454,-0.011169,-0.010712,-0.010129,-0.0094542,-0.009066,-0.0090118,-0.0092486,-0.0097224,-0.022448,-0.023102,-0.02325,-0.022907,-0.022412,-0.022006,-0.02188,-0.022172,-0.022762,-0.023461,-0.024032,-0.024221,-0.024059,-0.023561,-0.022878,-0.022179,-0.021525,-0.020964,-0.020415,-0.019806,-0.019193,-0.018621,-0.01825,-0.018203,-0.018592,-0.019455,-0.020695,-0.022118,-0.023485,-0.024538,-0.025086,-0.025062,-0.024503,-0.023602,-0.022648,-0.021912,-0.021599,-0.021697,-0.022095,-0.022676,-0.023222,-0.023646,-0.023844,-0.023802,-0.023619,-0.023357,-0.023201,-0.023248,-0.023485,-0.023871,-0.024171,-0.024211,-0.023827,-0.022903,-0.021494,-0.019646,-0.017537,-0.015397,-0.013376,-0.011592,-0.0099982,-0.0084683,-0.0068823,-0.0050989,-0.003118,-0.0010114,0.0010812,0.0029599,0.0044797,0.0055741,0.0062871,0.0067764,0.0071969,0.0077018,0.0084219,0.0093837,0.010566,0.011862,0.013106,0.014116,0.014691,0.014694,0.01406,0.012772,0.010922,0.0086207,0.0060292,0.0033176,0.00063892,-0.0018217,-0.0039425,-0.00566,-0.0069764,-0.0079586,-0.0086553,-0.0090977,-0.0093179,-0.0092952,-0.0090687,-0.0086925,-0.0082671,-0.0079787,-0.0079528,-0.0083146,-0.0091096,-0.01023,-0.01153,-0.0127,-0.013521,-0.013857,-0.013646,-0.013014,-0.012118,-0.011246,-0.010731,-0.010784,-0.0116,-0.013158,-0.015329,-0.017902,-0.020566,-0.023105,-0.025344,-0.027222,-0.028787,-0.030156,-0.031506,-0.033011,-0.034846,-0.03712,-0.039975,-0.043429,-0.047455,-0.052013,-0.056862,-0.061874,-0.0668,-0.071396,-0.075575,-0.079075,-0.08196,-0.084202,-0.085784,-0.086887,-0.087418,-0.087524,-0.087296,-0.086708,-0.085999,-0.085052,-0.083905,-0.082534,-0.080759,-0.078663,-0.076148,-0.073267,-0.070123,-0.066719,-0.063197,-0.059563,-0.055828,-0.052068,-0.048335,-0.04473,-0.041305,-0.038167,-0.035416,-0.033159,-0.031397,-0.03012,-0.029291,-0.028772,-0.02844,-0.028088,-0.027517,-0.026593,-0.025188,-0.02343,-0.021515,-0.019695,-0.01829,-0.017441,-0.017266,-0.017684,-0.01852,-0.019573,-0.020506,-0.021077,-0.021151,-0.02066,-0.019678,-0.018275,-0.01663,-0.014893,-0.013134,-0.012384,-0.00667,-0.0058321,-0.0054842,-0.0051408,-0.0048089,-0.0045892,-0.0043402,-0.0040421,-0.0036754,-0.0032212,-0.0026673,-0.0020251,-0.0012926,-0.00047969,0.00039004,0.0012519,0.002065,0.0027736,0.003313,0.0035781,0.0035127,0.0030597,0.0021641,0.00072888,-0.0012824,-0.0039013,-0.0071498,-0.011087,-0.015686,-0.020895,-0.026627,-0.032819,-0.039306,-0.045888,-0.052337,-0.058454,-0.063954,-0.068538,-0.071898,-0.073786,-0.073885,-0.071894,-0.067521,-0.060544,-0.050705,-0.037787,-0.021617,-0.0021169,0.020781,0.04707,0.076677,0.10943,0.14514,0.18353,0.22428,0.26699,0.31121,0.35642,0.40205,0.44745,0.49189,0.53465,0.57492,0.61196,0.64502,0.67341,0.69656,0.71401,0.72545,0.73069,0.72974,0.72277,0.7101,0.69218,0.66961,0.64311,0.61342,0.58129,0.54749,0.51276,0.47774,0.44297,0.40891,0.37595,0.34434,0.31426,0.28582,0.25915,0.2343,0.21133,0.19029,0.17124,0.1542,0.13913,0.12595,0.1146,0.10491,0.096651,0.089571,0.083431,0.07796,0.072873,0.067913,0.062909,0.05774,0.052314,0.046602,0.040662,0.034606,0.028524,0.02252,0.016721,0.011274,0.0062554,0.0017153,-0.0023081,-0.0057673,-0.0086986,-0.011166,-0.01324,-0.014958,-0.016415,-0.017712,-0.018935,-0.020119,-0.021334,-0.022635,-0.024481,-0.026905,-0.029671,-0.032546,-0.037047,-0.037269,-0.037903,-0.038926,-0.040311,-0.041882,-0.043394,-0.044647,-0.0454,-0.045564,-0.045155,-0.044213,-0.04287,-0.041265,-0.039509,-0.037731,-0.035944,-0.034199,-0.032465,-0.030645,-0.028713,-0.02669,-0.024634,-0.022644,-0.020785,-0.019242,-0.018115,-0.017451,-0.017253,-0.017434,-0.017844,-0.018273,-0.018463,-0.018296,-0.017612,-0.016346,-0.014557,-0.012388,-0.010044,-0.0077254,-0.0056192,-0.0039897,-0.0029419,-0.002525,-0.0027371,-0.0034519,-0.0044813,-0.0055551,-0.0064681,-0.0071472,-0.0075156,-0.0075973,-0.0074418,-0.0070717,-0.0064924,-0.0056999,-0.0048078,-0.0039808,-0.0032919,-0.0027957,-0.0024846,-0.0022502,-0.0019727,-0.0015064,-0.0008381,3.0973e-05,0.0011338,0.0024461,0.0039273,0.005581,0.0073728,0.0093337,0.011389,0.013537,0.015811,0.018172,0.020573,0.022963,0.025278,0.027509,0.029565,0.031495,0.033351,0.035193,0.037077,0.039039,0.041094,0.043179,0.045161,0.046978,0.048565,0.049911,0.05099,0.051812,0.052421,0.052841,0.053107,0.053255,0.053332,0.053394,0.053492,0.053626,0.053762,0.053784,0.053552,0.052922,0.051749,0.050009,0.047724,0.04491,0.041678,0.03809,0.034345,0.030602,0.027026,0.023857,0.021257,0.019283,0.017841,0.016655,0.015483,0.014008,0.011995,0.0093162,0.0059425,0.0019188,-0.0026712,-0.0077232,-0.013088,-0.01859,-0.024144,-0.029629,-0.034991,-0.040215,-0.045247,-0.050171,-0.054922,-0.059411,-0.063704,-0.067661,-0.071345,-0.074604,-0.077342,-0.079734,-0.08174,-0.083489,-0.085082,-0.086443,-0.087666,-0.088419,-0.08856,-0.087991,-0.086554,-0.084341,-0.081481,-0.078278,-0.075132,-0.07218,-0.069633,-0.067494,-0.065631,-0.063791,-0.061713,-0.05924,-0.056355,-0.05312,-0.049789,-0.04668,-0.044036,-0.041949,-0.040358,-0.039039,-0.037722,-0.036059,-0.033859,-0.031049,-0.027625,-0.023759,-0.019647,-0.015526,-0.011642,-0.008173,-0.0053389,-0.003227,-0.0017986,-0.00099491,-0.00058032,-0.00036883,-0.00017093,8.1499e-05,0.00038498,0.00074494,0.0011156,0.0014189,0.0016973,0.0019666,0.0021106,0.0020865,0.0019124,0.001614,0.0012194,0.00070812,0.0001099,-0.00054387,-0.0012263,-0.0019557,-0.0027048,-0.0034445,-0.0041514,-0.0048399,-0.0054859,-0.0060645,-0.0065569,-0.0069753,-0.0073037,-0.007527,-0.0076354,-0.0076462,-0.007556,-0.0073607,-0.0070548,-0.0066535,-0.0061576,-0.0055674,-0.004878,-0.0041051,-0.0032574,-0.0023434,-0.0013626,-0.00033337,0.00072582,0.001793,0.0028544,0.0038805,0.0048413,0.0057113,0.0064842,0.0071531,0.0077154,0.0081733,0.0085402,0.0088229,0.0090215,0.0091329,0.0091581,0.009094,0.0089364,0.0086824,0.0083334,0.0078869,0.0073432,0.0067034,0.0059732,0.0051512,0.004243,0.0032561,0.0022056,0.0010926,-7.205e-05,-0.0012742,-0.0024852,-0.0036984,-0.0048965,-0.0060605,-0.0071528,-0.0081694,-0.009099,-0.0099303,-0.010627,-0.011192,-0.011625,-0.01193,-0.01208,-0.012095,-0.01199,-0.011785,-0.011459,-0.01103,-0.010517,-0.0099385,-0.009281,-0.0085688,-0.0078351,-0.0071144,-0.0064048,-0.0057353,-0.0051392,-0.0046465,-0.0042507,-0.0039725,-0.003836,-0.0038612,-0.0040331,-0.004359,-0.0048463,-0.0054998,-0.0062962,-0.0072339,-0.0083092,-0.0095143,-0.010817,-0.012201,-0.013645,-0.015125,-0.016608,-0.018082,-0.019527,-0.020929,-0.022271,-0.023546,-0.024738,-0.025832,-0.026823,-0.027711,-0.028485,-0.02914,-0.029687,-0.030124,-0.030446,-0.030645,-0.030743,-0.030739,-0.030629,-0.030412,-0.030115,-0.029728,-0.029243,-0.028651,-0.027984,-0.027228,-0.026377,-0.025426,-0.024414,-0.02332,-0.022135,-0.020854,-0.019514,-0.018105,-0.016623,-0.015067,-0.013476,-0.011843,-0.010157,-0.0084137,-0.0066505,-0.0048718,-0.0030775,-0.0012698,0.00051378,0.0022625,0.0039839,0.0056857,0.0073416,0.0089361,0.010476,0.011968,0.013389,0.014722,0.015981,0.017182,0.018313,0.019357,0.020331,0.021251,0.022105,0.02288,0.023594,0.024264,0.024886,0.025445,0.025952,0.026422,0.026846,0.02721,0.027525,0.027802,0.028041,0.028228,0.02837,0.028475,0.028543,0.028565,0.028545,0.028492,0.028411,0.028299,0.028159,0.027997,0.027824,0.02764,0.027446,0.027241,0.027033,0.026824,0.026603,0.02636,0.026102,0.025832,0.025537,0.025205,0.02484,0.024449,0.024015,0.023521,0.022967,0.022363,0.021693,0.020941,0.020108,0.019211,0.018238,0.017174,0.016021,0.014807,0.013521,0.012157,0.010718,0.0092364,0.0077078,0.0061253,0.0044918,0.0028442,0.0011817,-0.0004962,-0.0021819,-0.0038302,-0.0054368,-0.0070001,-0.0085171,-0.0099487,-0.011298,-0.012572,-0.013776,-0.014874,-0.015873,-0.01678,-0.017603,-0.018312,-0.018916,-0.019428,-0.019859,-0.020182,-0.020409,-0.020554,-0.02063,-0.020618,-0.020534,-0.020396,-0.020217,-0.01998,-0.019697,-0.019382,-0.019038,-0.018652,-0.018236,-0.017803,-0.017358,-0.016897,-0.016433,-0.015978,-0.015528,-0.015082,-0.014646,-0.014223,-0.013804,-0.013393,-0.012993,-0.01261,-0.012233,-0.01188,-0.011555,-0.011262,-0.010989,-0.010755,-0.010562,-0.010407,-0.010274,-0.010183,-0.010132,-0.010113,-0.010107,-0.010136,-0.010192,-0.01027,-0.01035,-0.010456,-0.010583,-0.010724,-0.010859,-0.011008,-0.01116,-0.011303,-0.011417,-0.011519,-0.0116,-0.011651,-0.011662,-0.01165,-0.01161,-0.011534,-0.011415,-0.011264,-0.011076,-0.010844,-0.010566,-0.010256,-0.0099124,-0.0095369,-0.0091357,-0.0087257,-0.0083105,-0.0078929,-0.0074799,-0.0070847,-0.0067072,-0.0063455,-0.0060002,-0.0056772,-0.0053707,-0.0050738,-0.0047823,-0.0044999,-0.00422,-0.0039354,-0.0036401,-0.0033388,-0.0030251,-0.0026926,-0.0023362,-0.0019643,-0.0015742,-0.0011637,-0.00073063,-0.00028852,0.00016142,0.00061744,0.0010781,0.0015248,0.0019529,0.0023588,0.0027421,0.0030871,0.0033935,0.003663,0.0039,0.0040929,0.0042427,0.0043511,0.0044205,0.0044413,0.0044162,0.0043498,0.0042466,0.0041057,0.0039345,0.003741,0.0035273,0.0032961,0.0030544,0.0028094,0.0025592,0.0023104,0.002072,0.0018519,0.0016433,0.0014531,0.0012855,0.0011429,0.0010096,0.00088984,0.00078408,0.0006922,0.00059737,0.0005051,0.0004159,0.00033021,0.00023473,0.00013884,4.5962e-05,-3.9711e-05,-0.00012326,-0.00019069,-0.00023596,-0.00025301,-0.00024074,-0.00018532,-8.2364e-05,7.1587e-05,0.0002796,0.0005505,0.00088383,0.001278,0.0017349,0.0022557,0.0028318,0.0034515,0.004108,0.0047893,0.0054771,0.0061534,0.0068085,0.0074316,0.0080096,0.0085302,0.0089864,0.0093705,0.0096714,0.0098785,0.0099814,0.0099776,0.0098638,0.0096389,0.0092972,0.0088491,0.0083021,0.0076646,0.006934,0.0061293,0.0052646,0.0043537,0.0033943,0.0024076,0.0014085,0.00041008,-0.00059161,-0.0015763,-0.0025297,-0.0034376,-0.0043,-0.0050955,-0.0058091,-0.0064266,-0.0069461,-0.0073514,-0.007636,-0.0077969,-0.0078399,-0.00776,-0.0075617,-0.0072503,-0.0068328,-0.006304,-0.0056706,-0.0049406,-0.0041233,-0.0032191,-0.0022445,-0.0012189,-0.00016069,0.00092349,0.0020125,0.0030854,0.0041257,0.0051286,0.0060757,0.0069482,0.0077324,0.0084225,0.0090034,0.0094614,0.0097914,0.0099911,0.010054,0.0099769,0.0097655,0.0094201,0.0089443,0.0083451,0.007646,0.0068547,0.0059883,0.0050664,0.004124,0.003166,0.0022061,0.001257,0.00034845,-0.00052697,-0.0013628,-0.0021509,-0.0028613,-0.0035046,-0.0040789,-0.0045837,-0.0049967,-0.0053388,-0.0056221,-0.0058578,-0.0060311,-0.0061631,-0.0062668,-0.0063522,-0.0064021,-0.0064296,-0.0064474,-0.0064685,-0.0064838,-0.0065036,-0.0065426,-0.0066143,-0.0067144,-0.0068421,-0.0070057,-0.0072135,-0.0074678,-0.0077592,-0.0080906,-0.0084637,-0.0088842,-0.0093304,-0.0097935,-0.010267,-0.010766,-0.01127,-0.011775,-0.012283,-0.012824,-0.013383,-0.013954,-0.01453,-0.015135,-0.015749,-0.016353,-0.016936,-0.017517,-0.018074,-0.018587,-0.019035,-0.019423,-0.019721,-0.019901,-0.019933,-0.019818,-0.019535,-0.019069,-0.018412,-0.017575,-0.01656,-0.015368,-0.014004,-0.01248,-0.010809,-0.0089982,-0.0070587,-0.0050039,-0.0028556,-0.00062958,0.0016567,0.003984,0.0063194,0.008638,0.010913,0.013116,0.015205,0.017152,0.018929,0.020516,0.021877,0.022999,0.023874,0.024503,0.024867,0.024974,0.024835,0.02447,0.023875,0.023071,0.022086,0.020962,0.019701,0.018339,0.016908,0.015454,0.013974,0.012495,0.011041,0.0096507,0.0083178,0.0070617,0.0059024,0.004869,0.0039521,0.0031606,0.0025019,0.0019867,0.0016033,0.0013451,0.0012004,0.0011502,0.0011745,0.0012468,0.0013409,0.0014257,0.0015007,0.0015513,0.0015651,0.001518,0.0014308,0.0012936,0.0010962,0.00081781,0.00049319,0.00012249,-0.00029393,-0.00076499,-0.0012504,-0.0017483,-0.0022585,-0.0027822,-0.0032826,-0.0037534,-0.0041883,-0.0045747,-0.0048855,-0.0051181,-0.0052723,-0.0053337,-0.0052947,-0.005161,-0.0049401,-0.004617,-0.0042033,-0.0037155,-0.003171,-0.0025593,-0.0019076,-0.0012411,-0.0005859,6.2649e-05,0.00066973,0.001209,0.0016598,0.002036,0.0023198,0.0025012,0.0025724,0.0025496,0.0024179,0.0021667,0.0017885,0.0012995,0.00069756,-1.2629e-05,-0.00082435,-0.0017162,-0.0026875,-0.0037351,-0.0048552,-0.0060291,-0.0072529,-0.0085132,-0.0097941,-0.011067,-0.012326,-0.013561,-0.014759,-0.015898,-0.016978,-0.01799,-0.01892,-0.019741,-0.020453,-0.021049,-0.021523,-0.021857,-0.02206,-0.022137,-0.022092,-0.021913,-0.021612,-0.021196,-0.020673,-0.020043,-0.019318,-0.018514,-0.01765,-0.016741,-0.015802,-0.014852,-0.013908,-0.012987,-0.012095,-0.011242,-0.010439,-0.0097068,-0.009053,-0.008487,-0.0080165,-0.0076579,-0.0074112,-0.0072692,-0.0072217,-0.0072706,-0.0074097,-0.0076227,-0.0078924,-0.0082138,-0.0085803,-0.0089663,-0.0093436,-0.0096951,-0.010013,-0.01027,-0.01044,-0.010512,-0.010493,-0.010367,-0.010119,-0.009746,-0.0092639,-0.0086626,-0.0079349,-0.0070916,-0.0061565,-0.0051325,-0.0040239,-0.0028555,-0.0016512,-0.00041609,0.00084482,0.0021015,0.0033369,0.0045454,0.0057207,0.0068277,0.0078583,0.0088125,0.0096924,0.010469,0.011148,0.011741,0.012256,0.012669,0.012993,0.013244,0.013437,0.013554,0.013616,0.013646,0.013665,0.013662,0.013656,0.013669,0.013719,0.013792,0.013899,0.014054,0.01427,0.014532,0.014842,0.01521,0.015637,0.015817,0.016101,0.016505,0.017012,0.017632,0.018365,0.019211,0.020169,0.021221,0.022367,0.0236,0.024903,0.026235,0.027573,0.028873,0.030077,0.031099,0.031882,0.032342,0.032394,0.031937,0.030917,0.029265,0.026924,0.023841,0.020022,0.015476,0.010243,0.0043866,-0.0019567,-0.0086352,-0.015461,-0.022217,-0.028632,-0.034436,-0.039343,-0.04306,-0.045276,-0.045701,-0.044055,-0.040069,-0.033486,-0.024102,-0.011755,0.0036784,0.022273,0.04402,0.068848,0.096639,0.12722,0.16032,0.19564,0.23283,0.2715,0.31119,0.35139,0.39158,0.43117,0.46952,0.50595,0.53982,0.57046,0.59724,0.61959,0.63706,0.64931,0.65609,0.65732,0.65307,0.64358,0.62918,0.61036,0.58772,0.56195,0.53375,0.50382,0.47289,0.44159,0.41048,0.38001,0.35058,0.32247,0.29586,0.27085,0.24754,0.22594,0.20606,0.18791,0.17148,0.15677,0.14372,0.13226,0.12231,0.11373,0.10635,0.099959,0.094358,0.089312,0.084586,0.079963,0.075283,0.070405,0.065236,0.059736,0.053932,0.047875,0.041651,0.035366,0.029159,0.02315,0.017455,0.012174,0.007397,0.0031753,-0.00046296,-0.0035149,-0.005995,-0.0079491,-0.0094304,-0.010504,-0.011243,-0.011731,-0.012034,-0.012215,-0.012334,-0.0127,-0.0133,-0.014013,-0.014744,-0.018213,-0.018196,-0.018467,-0.018984,-0.019737,-0.020616,-0.021477,-0.02224,-0.022752,-0.022906,-0.022671,-0.022068,-0.021209,-0.020143,-0.018896,-0.017559,-0.016153,-0.014732,-0.013346,-0.012015,-0.0108,-0.009635,-0.0084624,-0.0072591,-0.006008,-0.0047432,-0.0034698,-0.0021683,-0.00086762,0.00051616,0.0020308,0.0037195,0.005588,0.007575,0.0096318,0.011687,0.013613,0.015428,0.01716,0.018912,0.020785,0.022794,0.024922,0.027018,0.028801,0.030074,0.030612,0.03035,0.029328,0.027714,0.025873,0.024121,0.022716,0.021826,0.021389,0.021255,0.021142,0.020805,0.020169,0.019226,0.018085,0.016942,0.015957,0.015325,0.015164,0.015504,0.016301,0.017321,0.018299,0.018986,0.019176,0.018822,0.017943,0.016666,0.015197,0.013713,0.012468,0.011618,0.011261,0.011425,0.012013,0.012889,0.013897,0.014933,0.016038,0.017184,0.018349,0.019447,0.020357,0.020926,0.021,0.02051,0.019544,0.018183,0.016597,0.01495,0.013437,0.012183,0.01123,0.010584,0.010211,0.0099947,0.009822,0.0095722,0.0091193,0.0083795,0.0072806,0.0058815,0.0042273,0.0023287,0.00024198,-0.00202,-0.0043969,-0.006843,-0.0093541,-0.011843,-0.014354,-0.016861,-0.019311,-0.021643,-0.023759,-0.025648,-0.027355,-0.028972,-0.030709,-0.032715,-0.035078,-0.037801,-0.04082,-0.04402,-0.047325,-0.050614,-0.053865,-0.057136,-0.060409,-0.063791,-0.067208,-0.07057,-0.07385,-0.076827,-0.079515,-0.081837,-0.083743,-0.085437,-0.086823,-0.088047,-0.089126,-0.089938,-0.090541,-0.0907,-0.090407,-0.089705,-0.08848,-0.086887,-0.084878,-0.082553,-0.080034,-0.077323,-0.074553,-0.071731,-0.068778,-0.065615,-0.062093,-0.058161,-0.05382,-0.04915,-0.044307,-0.03951,-0.034873,-0.030517,-0.026499,-0.022779,-0.019323,-0.015975,-0.012644,-0.0093547,-0.0061273,-0.0031366,-0.00049957,0.0016651,0.0032665,0.0044184,0.005297,0.0062173,0.0074585,0.0091928,0.011498,0.014263,0.017228,0.020123,0.022637,0.024554,0.025634,0.025781,0.025076,0.025474,0.017977,0.018161,0.017762,0.017332,0.016844,0.016329,0.015806,0.015302,0.01479,0.014272,0.01376,0.013279,0.012818,0.012384,0.011982,0.011617,0.011252,0.01085,0.010359,0.0097222,0.0088559,0.0076717,0.0060757,0.0039754,0.0012822,-0.0020839,-0.0061839,-0.011054,-0.016684,-0.023033,-0.030019,-0.037519,-0.045344,-0.05328,-0.061081,-0.068483,-0.075166,-0.080824,-0.085149,-0.087855,-0.088613,-0.087136,-0.083153,-0.076432,-0.066712,-0.053801,-0.037551,-0.01789,0.005256,0.031871,0.061877,0.095105,0.13139,0.1705,0.21211,0.25582,0.30123,0.34783,0.39504,0.44218,0.48853,0.53332,0.57574,0.6149,0.65002,0.68034,0.7052,0.72404,0.73649,0.74238,0.7417,0.73462,0.72154,0.703,0.67971,0.65245,0.62208,0.5895,0.55556,0.52104,0.48665,0.45295,0.4204,0.38931,0.35987,0.33218,0.30628,0.28216,0.25979,0.23917,0.2203,0.2032,0.18785,0.17426,0.16239,0.15217,0.14345,0.13607,0.12982,0.12444,0.11967,0.11526,0.11096,0.10658,0.10195,0.096977,0.091611,0.085867,0.079795,0.073481,0.067033,0.060583,0.054256,0.048174,0.04245,0.037188,0.032456,0.02829,0.024701,0.021688,0.019208,0.017197,0.015574,0.01427,0.013196,0.012263,0.011391,0.010262,0.0086638,0.0067311,0.0045997,-0.0056737,-0.0064373,-0.0068599,-0.0069138,-0.0067159,-0.0063752,-0.0060035,-0.0057519,-0.0056182,-0.0056146,-0.0057837,-0.006094,-0.0065774,-0.0071948,-0.0079839,-0.0090142,-0.010233,-0.011631,-0.013158,-0.014737,-0.016298,-0.017715,-0.01896,-0.020044,-0.020929,-0.021644,-0.022188,-0.022532,-0.02265,-0.022513,-0.022201,-0.02188,-0.021706,-0.021878,-0.022444,-0.023291,-0.02424,-0.02508,-0.025704,-0.026066,-0.02612,-0.025959,-0.025628,-0.025196,-0.024704,-0.024148,-0.023571,-0.022979,-0.02237,-0.021867,-0.021523,-0.021438,-0.021637,-0.02212,-0.022895,-0.023855,-0.024869,-0.025844,-0.026649,-0.02723,-0.027509,-0.027461,-0.027099,-0.026414,-0.025466,-0.024412,-0.023401,-0.022632,-0.022183,-0.022051,-0.022124,-0.022165,-0.021982,-0.021457,-0.0205,-0.01915,-0.017433,-0.015445,-0.013296,-0.011079,-0.0089754,-0.0071242,-0.005617,-0.0045224,-0.0038451,-0.0035818,-0.0036494,-0.0039557,-0.0044592,-0.0050802,-0.0057702,-0.0064529,-0.007102,-0.007672,-0.0080752,-0.0082736,-0.0082809,-0.0081231,-0.0078356,-0.0074346,-0.0069518,-0.0063524,-0.0055399,-0.0044504,-0.0031423,-0.0016994,-0.00026696,0.001059,0.0021515,0.0029251,0.0033926,0.0035075,0.0032629,0.0026717,0.0017825,0.00075591,-0.00033298,-0.0013396,-0.002141,-0.0027134,-0.0030453,-0.003219,-0.0033055,-0.0033794,-0.0035674,-0.0039263,-0.0044329,-0.0050371,-0.0056853,-0.0063213,-0.0069491,-0.0075439,-0.0081639,-0.0089539,-0.0099359,-0.011263,-0.012928,-0.014907,-0.017233,-0.019712,-0.022347,-0.02497,-0.027352,-0.029439,-0.03094,-0.031849,-0.032144,-0.031777,-0.030977,-0.029757,-0.028289,-0.026742,-0.025101,-0.023592,-0.02225,-0.021197,-0.020543,-0.020221,-0.020271,-0.020572,-0.020985,-0.021391,-0.021629,-0.021636,-0.021373,-0.020886,-0.02029,-0.019666,-0.018954,-0.018078,-0.016982,-0.015624,-0.014082,-0.012442,-0.0109,-0.0096461,-0.0086875,-0.0080763,-0.0077779,-0.0077208,-0.0078277,-0.0079248,-0.0080284,-0.0081448,-0.0082706,-0.008475,-0.0088021,-0.0093752,-0.010236,-0.011357,-0.012754,-0.014334,-0.015979,-0.017537,-0.018866,-0.020076,-0.016048,-0.017198,-0.018032,-0.01882,-0.019554,-0.020077,-0.02056,-0.02105,-0.021527,-0.021993,-0.022447,-0.02289,-0.023301,-0.023674,-0.024025,-0.024381,-0.024767,-0.025229,-0.025836,-0.026671,-0.027815,-0.029362,-0.031415,-0.034075,-0.037429,-0.041544,-0.046458,-0.05217,-0.058638,-0.06576,-0.073385,-0.081309,-0.089293,-0.097055,-0.10428,-0.11063,-0.11576,-0.11932,-0.12095,-0.1203,-0.11703,-0.11083,-0.10139,-0.088428,-0.071715,-0.05107,-0.026343,0.0025515,0.035602,0.072715,0.11374,0.15844,0.20648,0.25742,0.3108,0.36604,0.42246,0.47927,0.53566,0.5907,0.6434,0.69275,0.73779,0.77762,0.81142,0.83849,0.85833,0.87065,0.87533,0.87242,0.86227,0.84537,0.8224,0.79419,0.76165,0.72579,0.68757,0.64792,0.60769,0.56765,0.52844,0.49052,0.45427,0.41997,0.3878,0.35784,0.33019,0.30491,0.28205,0.26159,0.24354,0.22781,0.21429,0.20279,0.19307,0.18482,0.17771,0.17136,0.16543,0.15959,0.15355,0.1471,0.1401,0.13252,0.12437,0.11575,0.10682,0.097777,0.088804,0.08011,0.071874,0.064236,0.057264,0.051033,0.04556,0.040823,0.036742,0.033275,0.03034,0.02785,0.025686,0.023805,0.022147,0.020656,0.019283,0.018012,0.016872,0.015738,0.01458,0.01347,0.012445,0.0074014,0.0069615,0.0068089,0.0070472,0.0076276,0.008447,0.0093915,0.010206,0.010741,0.010868,0.010596,0.010061,0.0094015,0.0088643,0.0086778,0.008918,0.00961,0.010599,0.01171,0.012712,0.013338,0.01347,0.013081,0.012233,0.011141,0.010026,0.0091481,0.0086901,0.0086737,0.0090621,0.0096998,0.010344,0.010773,0.010737,0.010117,0.008905,0.0071479,0.0050346,0.0027286,0.00037225,-0.0019022,-0.0040698,-0.0060738,-0.0079192,-0.0096251,-0.011158,-0.012554,-0.013805,-0.014905,-0.015875,-0.016646,-0.017254,-0.017736,-0.018115,-0.018437,-0.018656,-0.018715,-0.018519,-0.017888,-0.016784,-0.015238,-0.013413,-0.011575,-0.0099854,-0.0089113,-0.0084918,-0.0086641,-0.0093136,-0.010183,-0.011017,-0.011604,-0.011816,-0.011679,-0.011259,-0.010589,-0.0097566,-0.00878,-0.0077068,-0.0066025,-0.0055212,-0.0045729,-0.0037947,-0.0031931,-0.0027759,-0.0024748,-0.0022442,-0.00206,-0.001904,-0.0018229,-0.0018012,-0.0018633,-0.0019729,-0.0020495,-0.0020206,-0.0018486,-0.0015327,-0.0011741,-0.00087474,-0.00086358,-0.0012717,-0.0021465,-0.0034864,-0.0052171,-0.0072542,-0.009453,-0.011601,-0.013689,-0.015663,-0.017591,-0.01951,-0.021413,-0.023328,-0.025165,-0.026833,-0.028339,-0.029629,-0.030833,-0.032056,-0.033562,-0.035655,-0.038504,-0.042189,-0.046625,-0.051567,-0.056689,-0.061584,-0.065936,-0.069528,-0.072312,-0.074325,-0.075855,-0.077198,-0.078718,-0.080783,-0.083475,-0.086901,-0.090824,-0.094881,-0.098825,-0.10212,-0.10462,-0.10615,-0.10665,-0.10644,-0.10552,-0.10417,-0.10251,-0.10044,-0.098151,-0.095517,-0.092671,-0.089788,-0.086865,-0.084184,-0.081686,-0.079326,-0.076985,-0.07438,-0.071416,-0.067984,-0.064141,-0.060119,-0.056109,-0.052376,-0.049086,-0.046336,-0.044091,-0.042245,-0.040585,-0.038897,-0.036918,-0.03435,-0.031063,-0.027006,-0.022312,-0.017262,-0.012125,-0.0073205,-0.0031693,0.00010695,0.002384,0.0038564,0.0047568,0.0054854,0.0064167,0.0077076,0.009375,0.011239,0.013089,0.014762,0.016099,0.017126,0.017939,0.018708,0.019566,0.019878,0.020105,0.020263,0.020326,0.020297,0.02018,0.019992,0.019718,0.019361,0.018929,0.018439,0.017879,0.017254,0.016568,0.015837,0.01506,0.014241,0.01339,0.012522,0.011639,0.010745,0.0098407,0.0089324,0.0080254,0.0071213,0.0062228,0.0053326,0.0044668,0.0036289,0.0028203,0.0020352,0.0012913,0.00058586,-8.5739e-05,-0.00073908,-0.0013519,-0.0019264,-0.0024652,-0.0029857,-0.0034581,-0.0038829,-0.0042634,-0.0046212,-0.004926,-0.0051804,-0.0053894,-0.0055762,-0.0057112,-0.0057983,-0.005844,-0.0058708,-0.0058538,-0.0057973,-0.0057067,-0.0055953,-0.0054394,-0.0052407,-0.005003,-0.0047331,-0.0044189,-0.004069,-0.0036924,-0.0032892,-0.0028553,-0.0023963,-0.0019163,-0.0014014,-0.0008544,-0.00028398,0.00029934,0.00090825,0.0015243,0.0021319,0.0027178,0.0033,0.0038579,0.0043799,0.0048555,0.0053058,0.0057049,0.006038,0.006292,0.0064855,0.0065908,0.0065964,0.0064938,0.0063047,0.0060055,0.0055884,0.0050483,0.0044083,0.0036499,0.0027733,0.0017837,0.00071413,-0.00044152,-0.0016738,-0.0029718,-0.004301,-0.0056666,-0.0070598,-0.0084685,-0.009855,-0.011216,-0.012537,-0.013799,-0.014967,-0.016039,-0.01701,-0.017878,-0.018624,-0.019256,-0.019776,-0.020189,-0.020482,-0.020661,-0.020731,-0.020702,-0.020577,-0.020364,-0.020077,-0.019731,-0.019344,-0.018918,-0.018467,-0.018004,-0.017551,-0.017107,-0.016681,-0.016281,-0.015936,-0.015634,-0.015375,-0.015157,-0.015002,-0.014891,-0.014811,-0.014754,-0.014741,-0.014751,-0.014768,-0.014774,-0.014787,-0.014783,-0.014737,-0.014626,-0.014468,-0.014247,-0.014014,-0.013684,-0.013284,-0.012932,-0.01246,-0.011828,-0.011034,-0.010052,-0.0088436,-0.0073845,-0.0057087,-0.00384,-0.0018048,0.00035084,0.0025203,0.0046172,0.0065619,0.0082687,0.0096038,0.01047,0.010785,0.010475,0.0094363,0.0076224,0.0050263,0.0016732,-0.0024169,-0.0071524,-0.012395,-0.01797,-0.023709,-0.029393,-0.034769,-0.039574,-0.043555,-0.04644,-0.047936,-0.047741,-0.045564,-0.041118,-0.034109,-0.024254,-0.011305,0.0049302,0.024607,0.047817,0.074589,0.10484,0.13844,0.17516,0.21472,0.25675,0.30081,0.3464,0.39296,0.43987,0.48644,0.53192,0.57556,0.61658,0.65419,0.68763,0.71628,0.73954,0.75698,0.76829,0.77333,0.77214,0.76489,0.75192,0.73373,0.71094,0.68425,0.6544,0.6222,0.58841,0.55374,0.51881,0.4842,0.45037,0.41762,0.38623,0.35638,0.32819,0.30172,0.27699,0.25406,0.233,0.21383,0.19655,0.18115,0.1676,0.15577,0.14547,0.13649,0.12858,0.12144,0.11474,0.10819,0.10157,0.094648,0.087274,0.079377,0.070991,0.062173,0.053035,0.043745,0.03452,0.025545,0.016989,0.009009,0.0017551,-0.0046955,-0.010308,-0.015079,-0.019014,-0.022174,-0.024644,-0.026515,-0.027876,-0.028839,-0.029514,-0.029991,-0.030359,-0.030666,-0.031259,-0.032152,-0.033255,-0.034472,-0.045756,-0.046585,-0.047045,-0.046907,-0.046128,-0.04473,-0.042847,-0.040769,-0.038682,-0.03679,-0.035236,-0.033952,-0.032904,-0.031956,-0.031038,-0.030126,-0.029151,-0.02817,-0.027199,-0.026191,-0.025129,-0.023978,-0.022802,-0.021648,-0.020514,-0.01945,-0.018472,-0.017575,-0.016811,-0.016255,-0.016015,-0.016114,-0.016458,-0.016945,-0.01734,-0.017321,-0.016645,-0.015142,-0.012826,-0.0098339,-0.0063908,-0.0029021,0.00030726,0.0030038,0.0050098,0.0063039,0.0068797,0.0068869,0.0065085,0.0058397,0.005094,0.0044504,0.0041367,0.004333,0.0051565,0.0067156,0.0090117,0.011882,0.015122,0.018401,0.021403,0.023856,0.025611,0.026737,0.027408,0.027847,0.028363,0.029171,0.030416,0.032106,0.034119,0.036292,0.038369,0.040096,0.041286,0.041823,0.041767,0.041242,0.040435,0.039612,0.03899,0.038804,0.039146,0.040025,0.041414,0.043204,0.045231,0.047267,0.049083,0.050548,0.051541,0.052015,0.051997,0.051588,0.05089,0.049945,0.048741,0.047263,0.045478,0.043393,0.04107,0.038651,0.036274,0.034002,0.031808,0.029628,0.027305,0.024658,0.02148,0.017642,0.013148,0.0079904,0.0023123,-0.0036694,-0.009716,-0.015562,-0.021087,-0.026156,-0.030681,-0.034681,-0.038118,-0.040997,-0.043368,-0.045379,-0.047265,-0.049209,-0.051345,-0.053792,-0.056602,-0.059705,-0.063028,-0.066445,-0.069848,-0.07313,-0.076072,-0.07865,-0.080758,-0.082341,-0.083467,-0.08412,-0.084544,-0.08487,-0.085174,-0.085683,-0.086265,-0.086907,-0.087455,-0.087686,-0.087657,-0.08722,-0.086479,-0.085582,-0.084534,-0.083519,-0.08248,-0.081405,-0.080283,-0.07895,-0.077414,-0.07561,-0.073547,-0.071321,-0.069024,-0.066794,-0.064734,-0.062909,-0.061357,-0.060014,-0.058714,-0.057309,-0.055709,-0.053781,-0.051501,-0.048844,-0.045924,-0.04293,-0.040013,-0.037447,-0.035395,-0.033877,-0.032826,-0.032002,-0.031287,-0.03051,-0.029544,-0.028382,-0.026985,-0.025358,-0.023457,-0.021223,-0.018718,-0.015936,-0.01297,-0.0099881,-0.0071625,-0.0061709,-0.0048931,-0.0038171,-0.002769,-0.0016752,-0.00052399,0.0012822,0.003238,0.0053175,0.0074885,0.0097178,0.011933,0.014107,0.016215,0.018235,0.020101,0.021789,0.02327,0.024516,0.025453,0.026034,0.026205,0.025901,0.025015,0.02347,0.021201,0.018159,0.014293,0.009613,0.0041689,-0.0019501,-0.008636,-0.01572,-0.022994,-0.030221,-0.037149,-0.043488,-0.048931,-0.053171,-0.055906,-0.056825,-0.055629,-0.052046,-0.045816,-0.036707,-0.024522,-0.009131,0.0095658,0.031603,0.056953,0.085503,0.11711,0.15157,0.18861,0.22788,0.26904,0.31168,0.35531,0.39939,0.44338,0.48665,0.52851,0.56822,0.60509,0.63842,0.66755,0.69188,0.71098,0.72451,0.73227,0.7342,0.73043,0.72119,0.70689,0.68804,0.66527,0.63929,0.61083,0.58063,0.54941,0.51781,0.48639,0.45562,0.42587,0.39743,0.37049,0.34518,0.32158,0.29969,0.27952,0.26107,0.24433,0.22926,0.21581,0.20392,0.19346,0.18427,0.17616,0.16892,0.16232,0.15609,0.14999,0.14382,0.13741,0.13061,0.12334,0.1156,0.1074,0.098843,0.090025,0.081072,0.07213,0.063332,0.054799,0.046622,0.038905,0.031721,0.025118,0.019091,0.013663,0.0088224,0.0045436,0.00075807,-0.0025424,-0.00539,-0.0078117,-0.0098906,-0.011609,-0.013446,-0.015379,-0.017305,-0.019048,-0.022838,-0.021485,-0.020125,-0.018802,-0.017596,-0.016457,-0.015302,-0.014028,-0.012544,-0.010865,-0.0091029,-0.0072734,-0.0054984,-0.0038323,-0.0023186,-0.00091797,0.00050421,0.0020298,0.0037027,0.005575,0.0075318,0.0094704,0.011232,0.012716,0.013941,0.014919,0.01575,0.016574,0.017469,0.01855,0.019835,0.021275,0.022847,0.024424,0.025902,0.02711,0.027879,0.028172,0.027987,0.027366,0.026448,0.025311,0.024103,0.022859,0.021648,0.020575,0.019698,0.019045,0.018632,0.01842,0.018417,0.018525,0.018675,0.018827,0.018883,0.018754,0.018333,0.017546,0.016466,0.015154,0.013736,0.012353,0.011118,0.010181,0.0096154,0.0094374,0.0096623,0.010182,0.01083,0.011379,0.011574,0.011326,0.010572,0.0094046,0.0080356,0.0066841,0.0055519,0.0046971,0.0040791,0.0036378,0.0031837,0.0026272,0.0019349,0.0011864,0.00051758,1.1017e-05,-0.00023968,-0.00017136,0.00016469,0.00069426,0.0012646,0.0017355,0.0019481,0.0017642,0.0011752,0.00029119,-0.00072218,-0.0016559,-0.0023589,-0.0027388,-0.0028114,-0.0027173,-0.0026188,-0.0027519,-0.0033393,-0.0044965,-0.006288,-0.0086051,-0.011318,-0.014249,-0.017122,-0.019782,-0.022051,-0.023855,-0.025214,-0.02616,-0.026821,-0.027273,-0.027548,-0.027758,-0.027962,-0.028253,-0.028695,-0.02939,-0.030457,-0.031984,-0.034001,-0.036551,-0.03962,-0.043088,-0.046823,-0.050609,-0.054265,-0.057672,-0.060665,-0.063301,-0.065553,-0.067463,-0.069224,-0.070825,-0.072409,-0.073895,-0.075116,-0.076104,-0.076655,-0.07688,-0.076898,-0.076719,-0.076555,-0.076274,-0.075874,-0.075277,-0.074212,-0.072659,-0.070503,-0.067792,-0.064689,-0.061292,-0.057891,-0.054673,-0.051792,-0.049357,-0.047297,-0.045497,-0.043762,-0.04192,-0.039852,-0.037519,-0.034906,-0.032076,-0.029113,-0.026096,-0.023123,-0.020194,-0.017295,-0.014431,-0.0115,-0.0084989,-0.0053633,-0.0021346,0.00099629,0.0038563,0.0061501,0.0076684,0.0083377,0.0081491,0.0073524,0.0061788,0.0049621,0.0040324,0.0035819,0.0036701,0.0041736,0.0048656,0.0055651,0.0043276,0.010024,0.0087048,0.0073736,0.0060697,0.0048051,0.0038289,0.0029676,0.0021806,0.0014574,0.00079349,0.00022501,-0.00027728,-0.00072276,-0.0011234,-0.0014608,-0.0017801,-0.0021185,-0.0025165,-0.0029859,-0.0035878,-0.0043865,-0.0054512,-0.0068278,-0.0085913,-0.010825,-0.013608,-0.016988,-0.021005,-0.025696,-0.031067,-0.037073,-0.043631,-0.050638,-0.057951,-0.065373,-0.072661,-0.07955,-0.085745,-0.090912,-0.094686,-0.096699,-0.096579,-0.093952,-0.088448,-0.079735,-0.067525,-0.051579,-0.031724,-0.0078766,0.01996,0.051692,0.08713,0.126,0.16796,0.21259,0.25942,0.30791,0.35749,0.4075,0.45726,0.50599,0.55288,0.59708,0.63777,0.67412,0.70542,0.73103,0.75045,0.76335,0.76955,0.76907,0.76207,0.74891,0.73013,0.70636,0.67838,0.647,0.61311,0.57754,0.5411,0.50452,0.46844,0.43337,0.39973,0.3678,0.3378,0.30983,0.28395,0.26019,0.23855,0.21904,0.20161,0.18622,0.17282,0.16129,0.15145,0.14311,0.13605,0.12996,0.12456,0.11955,0.11468,0.10968,0.10435,0.098591,0.092351,0.085631,0.078506,0.07112,0.063651,0.056258,0.049115,0.042397,0.036255,0.03078,0.026055,0.022138,0.019052,0.016768,0.015246,0.014431,0.014248,0.01459,0.015365,0.016483,0.017852,0.019365,0.019975,0.020424,0.020751,0.020971,0.017814,0.019916,0.022213,0.024487,0.026488,0.028072,0.029185,0.029787,0.030034,0.030033,0.029832,0.029442,0.028797,0.027878,0.026705,0.025325,0.023982,0.022911,0.022318,0.02233,0.022898,0.023874,0.024984,0.025862,0.026275,0.026009,0.025038,0.023494,0.02159,0.019635,0.017868,0.016471,0.015627,0.015338,0.015615,0.016397,0.017616,0.019223,0.021088,0.023128,0.0253,0.02748,0.029566,0.031412,0.032912,0.033984,0.034536,0.034566,0.034146,0.033355,0.032317,0.031158,0.030038,0.029059,0.028281,0.027727,0.027396,0.027183,0.026993,0.026779,0.026517,0.02626,0.02603,0.025916,0.025964,0.026094,0.026231,0.02622,0.025944,0.025326,0.024305,0.023009,0.021554,0.020137,0.019001,0.018278,0.018073,0.018284,0.018711,0.019136,0.019279,0.01903,0.018348,0.017306,0.016105,0.01489,0.013831,0.012971,0.01227,0.011636,0.01092,0.010057,0.0089989,0.0077237,0.0062653,0.0046912,0.003161,0.001785,0.00062625,-0.0003414,-0.0012453,-0.0022444,-0.0034722,-0.0049767,-0.0067465,-0.0086991,-0.010723,-0.012633,-0.014289,-0.015626,-0.01661,-0.017295,-0.017781,-0.018151,-0.018526,-0.018897,-0.019345,-0.019903,-0.020553,-0.021305,-0.022127,-0.023041,-0.0241,-0.025339,-0.026905,-0.028885,-0.031352,-0.034357,-0.037882,-0.041823,-0.046075,-0.050446,-0.054848,-0.059184,-0.063296,-0.067208,-0.070875,-0.074299,-0.077587,-0.080599,-0.083426,-0.085913,-0.087881,-0.08942,-0.090386,-0.090925,-0.091133,-0.090997,-0.090817,-0.090473,-0.090004,-0.089379,-0.088382,-0.087027,-0.085126,-0.082618,-0.079551,-0.075786,-0.071325,-0.066115,-0.060178,-0.053725,-0.047028,-0.040491,-0.034543,-0.029454,-0.025323,-0.022072,-0.019433,-0.01718,-0.015116,-0.013102,-0.011101,-0.0090044,-0.0067913,-0.0044961,-0.0021484,9.4826e-05,0.0021532,0.0038872,0.005202,0.0061413,0.0067463,0.0071707,0.0075839,0.0080956,0.0088418,0.0098463,0.011132,0.012671,0.014249,0.015561,0.016212,0.015925,0.014628,0.014732,0.0021061,0.0023736,0.002434,0.0026492,0.0030168,0.0038761,0.0049661,0.0062293,0.0076316,0.0091416,0.010726,0.012314,0.013876,0.015378,0.016784,0.018015,0.019042,0.019818,0.020288,0.020356,0.019975,0.019081,0.01761,0.015475,0.012658,0.0091425,0.0049352,4.2365e-05,-0.0054548,-0.011458,-0.017835,-0.024442,-0.031067,-0.037478,-0.04342,-0.048626,-0.052795,-0.055619,-0.056779,-0.055958,-0.052828,-0.047073,-0.038397,-0.026532,-0.011259,0.0075797,0.030075,0.056254,0.086053,0.11932,0.15585,0.19535,0.23747,0.28179,0.32783,0.37505,0.42287,0.47061,0.51756,0.56297,0.60607,0.64605,0.68211,0.71358,0.7398,0.76023,0.77447,0.78228,0.7836,0.77849,0.76721,0.75018,0.728,0.70135,0.67099,0.63779,0.60259,0.56619,0.52931,0.49261,0.45666,0.42185,0.38849,0.35681,0.32694,0.29897,0.27292,0.24885,0.2268,0.20678,0.18877,0.17277,0.15874,0.14654,0.13601,0.12694,0.11912,0.11226,0.10608,0.1003,0.094702,0.089064,0.083214,0.077047,0.070532,0.063669,0.056509,0.049151,0.04174,0.034412,0.027304,0.020551,0.014283,0.0085919,0.0035379,-0.00084905,-0.0045555,-0.0076068,-0.010054,-0.01197,-0.013427,-0.014507,-0.015287,-0.015844,-0.016232,-0.016486,-0.016628,-0.016611,-0.016507,-0.016322,-0.016066,-0.020513,-0.021402,-0.022217,-0.022732,-0.022842,-0.022494,-0.021698,-0.020608,-0.019406,-0.018336,-0.017584,-0.017176,-0.017103,-0.017185,-0.017114,-0.016608,-0.015412,-0.013476,-0.010903,-0.0079303,-0.0049891,-0.0024362,-0.00051349,0.00067383,0.0012046,0.001226,0.0010307,0.00093947,0.0011313,0.0017329,0.002737,0.0040549,0.0055657,0.0070909,0.0085488,0.0098662,0.010934,0.01174,0.012283,0.01261,0.012794,0.012815,0.012734,0.012567,0.012344,0.012183,0.01217,0.012434,0.013055,0.013993,0.015265,0.016777,0.01841,0.02,0.021282,0.022109,0.022349,0.021929,0.020997,0.01974,0.018533,0.017661,0.017288,0.01748,0.018094,0.018875,0.019575,0.019957,0.01998,0.019612,0.018903,0.017998,0.017052,0.016211,0.015591,0.015189,0.015007,0.014906,0.01471,0.014305,0.013618,0.012666,0.011499,0.010107,0.0085353,0.0067515,0.0047356,0.0025382,0.00020816,-0.0021057,-0.0042947,-0.0062749,-0.0079276,-0.0092258,-0.010172,-0.010804,-0.011219,-0.011461,-0.011704,-0.012138,-0.012906,-0.01414,-0.015849,-0.018006,-0.020492,-0.023065,-0.02563,-0.028066,-0.030358,-0.032481,-0.034391,-0.036144,-0.037733,-0.039172,-0.040578,-0.041982,-0.043485,-0.045051,-0.046645,-0.048257,-0.049818,-0.051289,-0.052648,-0.053853,-0.054904,-0.05578,-0.056521,-0.057231,-0.058019,-0.058934,-0.060082,-0.061473,-0.063131,-0.065047,-0.067036,-0.069049,-0.07091,-0.072509,-0.07388,-0.074889,-0.075662,-0.076192,-0.076427,-0.076519,-0.076329,-0.075985,-0.075489,-0.074724,-0.07379,-0.072523,-0.070884,-0.068834,-0.066206,-0.06317,-0.05977,-0.056194,-0.052693,-0.049373,-0.046346,-0.043577,-0.040956,-0.038428,-0.035821,-0.032961,-0.029738,-0.026141,-0.022258,-0.018301,-0.014458,-0.010982,-0.0079839,-0.0054179,-0.0032067,-0.0011715,0.00081499,0.0028028,0.0048004,0.0066775,0.0084053,0.0099893,0.011503,0.013098,0.014911,0.017057,0.019563,0.02235,0.025262,0.027989,0.030103,0.031191,0.030989,0.029502,0.02697,0.023835,0.020557,0.020532,0.006936,0.0068669,0.0065958,0.0063197,0.0060361,0.0057134,0.0054156,0.0051621,0.0049599,0.0048224,0.0047621,0.0047858,0.0048854,0.0050545,0.0052818,0.0055517,0.0058378,0.0061167,0.0063584,0.0065256,0.0065655,0.0064221,0.006024,0.0052892,0.0041247,0.002448,0.0001771,-0.0027544,-0.006393,-0.010737,-0.01575,-0.021354,-0.027425,-0.033781,-0.040207,-0.046457,-0.052265,-0.05732,-0.061303,-0.063878,-0.064707,-0.06342,-0.059662,-0.053095,-0.043418,-0.030354,-0.013695,0.0066999,0.030884,0.058847,0.09048,0.12559,0.1639,0.20508,0.2487,0.29428,0.3413,0.38918,0.43724,0.48478,0.53105,0.57524,0.61655,0.65415,0.68731,0.71536,0.73772,0.75394,0.76374,0.76699,0.76373,0.75414,0.73862,0.7177,0.69203,0.66238,0.62957,0.59447,0.5579,0.52062,0.48336,0.4467,0.41115,0.37706,0.34474,0.31436,0.28605,0.25987,0.23586,0.21405,0.19443,0.17697,0.16158,0.14816,0.13655,0.12653,0.11784,0.11022,0.10339,0.097063,0.090973,0.084918,0.078737,0.072325,0.065616,0.05863,0.051429,0.044117,0.036806,0.029659,0.022832,0.016473,0.010681,0.0055661,0.0011951,-0.0024003,-0.005247,-0.0073579,-0.0087821,-0.0095872,-0.0098806,-0.0097282,-0.00921,-0.0084021,-0.0074024,-0.0062518,-0.0049965,-0.0038402,-0.0028429,-0.0019821,-0.001246,-0.0067755,-0.0060525,-0.0052554,-0.004417,-0.0037036,-0.0032067,-0.0029447,-0.0029415,-0.0030575,-0.0031831,-0.0032138,-0.0029917,-0.0025062,-0.0017406,-0.00080091,0.00017385,0.0011308,0.0019933,0.0027199,0.0033663,0.0039667,0.0046352,0.0053647,0.0061395,0.0069325,0.0076719,0.0082551,0.0086513,0.0088426,0.0089066,0.0088617,0.0087455,0.0086217,0.0085112,0.0084027,0.0083018,0.0081433,0.0079086,0.0074924,0.0068133,0.0058707,0.0046698,0.0033493,0.0020781,0.00097655,0.00017393,-0.0003932,-0.00085794,-0.0014354,-0.0024099,-0.0038655,-0.0058057,-0.008045,-0.010263,-0.0122,-0.013621,-0.014483,-0.014896,-0.015005,-0.015113,-0.015437,-0.016105,-0.017089,-0.018199,-0.019243,-0.020008,-0.020269,-0.019934,-0.018972,-0.017482,-0.015659,-0.013745,-0.012009,-0.010619,-0.0096161,-0.009018,-0.0087618,-0.0087835,-0.0089866,-0.009255,-0.009504,-0.0096331,-0.009566,-0.0093125,-0.0088806,-0.008351,-0.00778,-0.0072099,-0.0066887,-0.0061982,-0.0057333,-0.0053424,-0.0050538,-0.0049702,-0.005143,-0.0056095,-0.0063906,-0.0073802,-0.0084528,-0.0094297,-0.010149,-0.010581,-0.010721,-0.010719,-0.010805,-0.011202,-0.012191,-0.013841,-0.016157,-0.019002,-0.022087,-0.02516,-0.027903,-0.030133,-0.031833,-0.03301,-0.033864,-0.034533,-0.035204,-0.036054,-0.037159,-0.038579,-0.040286,-0.042177,-0.044132,-0.045991,-0.047655,-0.049058,-0.050189,-0.051017,-0.051633,-0.052064,-0.052379,-0.052708,-0.053072,-0.053655,-0.054476,-0.055518,-0.056897,-0.058473,-0.060341,-0.062402,-0.064478,-0.06653,-0.068188,-0.06933,-0.069818,-0.069496,-0.068577,-0.067099,-0.065385,-0.063758,-0.062336,-0.061361,-0.060752,-0.060381,-0.060058,-0.059443,-0.058452,-0.056993,-0.055115,-0.052962,-0.050668,-0.048356,-0.046056,-0.043719,-0.041271,-0.038658,-0.035813,-0.03276,-0.029635,-0.02659,-0.023878,-0.02164,-0.019949,-0.018816,-0.018064,-0.017564,-0.01711,-0.016577,-0.015986,-0.015363,-0.014876,-0.014681,-0.014898,-0.015589,-0.016555,-0.017503,-0.018026,-0.017734,-0.016444,-0.014147,-0.011099,-0.0077553,-0.0045727,-0.0047973,-0.0049838,-0.0051438,-0.0052783,-0.0053823,-0.0054499,-0.0054858,-0.0054883,-0.0054471,-0.0053524,-0.0052053,-0.0050084,-0.0047581,-0.0044533,-0.0041021,-0.0037159,-0.0032977,-0.0028483,-0.0023701,-0.001868,-0.0013419,-0.00079276,-0.00022601,0.0003475,0.0009191,0.0014819,0.0020323,0.0025703,0.0031012,0.0036327,0.0041708,0.0047199,0.005282,0.0058547,0.0064282,0.0069944,0.0075459,0.0080739,0.0085607,0.0089947,0.009367,0.0096687,0.009881,0.0099961,0.010012,0.0099278,0.0097341,0.0094322,0.00903,0.0085388,0.0079635,0.0073179,0.0066213,0.0058944,0.005152,0.0044086,0.0036812,0.0029873,0.0023442,0.0017633,0.0012568,0.00083491,0.00050963,0.00027994,0.00014393,9.9736e-05,0.00015604,0.00031135,0.00056411,0.00091194,0.0013604,0.0019008,0.0025163,0.0031865,0.0038981,0.0046327,0.0053658,0.0060738,0.0067395,0.0073511,0.0078878,0.0083294,0.0086589,0.0088752,0.0089663,0.0089215,0.0087294,0.0084018,0.0079388,0.0073434,0.0066164,0.0057849,0.0048654,0.0038742,0.0028203,0.0017322,0.00062601,-0.00048395,-0.0015912,-0.0026743,-0.0037182,-0.0047083,-0.005636,-0.0064843,-0.0072406,-0.0078943,-0.0084389,-0.0088658,-0.00917,-0.0093486,-0.0094013,-0.0093296,-0.0091403,-0.0088424,-0.0084443,-0.007956,-0.0073932,-0.006771,-0.0060972,-0.0053803,-0.0046358,-0.0038782,-0.0031102,-0.0023395,-0.0015838,-0.00086005,-0.00016679,0.0004864,0.0010832,0.0016097,0.0020798,0.002486,0.0028185,0.00307,0.003266,0.0033959,0.0034523,0.0034286,0.0033551,0.0032149,0.0030025,0.002716,0.0023937,0.0020192,0.0015933,0.0011175,0.00062787,0.00010113,-0.00046683,-0.0010788,-0.0017065,-0.0023738,-0.003083,-0.0038358,-0.004612,-0.0054336,-0.0063042,-0.0072248,-0.0081799,-0.0091778,-0.010211,-0.011271,-0.012343,-0.013425,-0.01451,-0.015593,-0.016667,-0.017723,-0.018749,-0.019734,-0.020672,-0.021544,-0.022337,-0.023039,-0.023652,-0.024156,-0.024541,-0.024801,-0.024944,-0.024958,-0.024839,-0.024584,-0.024212,-0.02371,-0.023075,-0.02231,-0.02144,-0.020462,-0.019383,-0.018214,-0.01699,-0.015714,-0.014394,-0.013042,-0.011691,-0.010348,-0.0090204,-0.0077155,-0.0064607,-0.0052569,-0.0040985,-0.0029785,-0.0019113,-0.00089621,7.5779e-05,0.0010119,0.001898,0.0027279,0.0035122,0.0042627,0.0049731,0.0056378,0.0062731,0.0068952,0.0075017,0.0080811,0.008647,0.0092117,0.0097691,0.010301,0.010818,0.011333,0.01184,0.012325,0.012801,0.013279,0.013752,0.014204,0.014642,0.015072,0.015482,0.01586,0.016211,0.016543,0.016842,0.017103,0.017333,0.01754,0.017705,0.017833,0.017936,0.018025,0.018085,0.018131,0.018175,0.018224,0.018252,0.018271,0.018284,0.018292,0.01827,0.018239,0.018209,0.018186,0.018146,0.01811,0.018079,0.018051,0.017998,0.017944,0.017894,0.017853,0.017806,0.01778,0.017778,0.017801,0.017828,0.01788,0.017953,0.018042,0.018131,0.018241,0.018368,0.018506,0.018638,0.018781,0.018924,0.019054,0.019158,0.019249,0.019317,0.01935,0.019347,0.019318,0.019252,0.019136,0.018971,0.018763,0.018498,0.018166,0.017781,0.017351,0.01687,0.016326,0.015744,0.015126,0.014459,0.013733,0.012977,0.012199,0.01139,0.010545,0.0097035,0.0088662,0.0080192,0.0071473,0.0062794,0.0054083,0.004515,0.0035829,0.0026424,0.0016901,0.00070918,-0.00031691,-0.0013627,-0.0024333,-0.0035472,-0.0047208,-0.0059297,-0.0071708,-0.0084557,-0.0097951,-0.011166,-0.012561,-0.01399,-0.015462,-0.016954,-0.018449,-0.019948,-0.021449,-0.022929,-0.024368,-0.025766,-0.027123,-0.028426,-0.029655,-0.030804,-0.031873,-0.032849,-0.033711,-0.034458,-0.03509,-0.035609,-0.036002,-0.036273,-0.03643,-0.036482,-0.036426,-0.036268,-0.036017,-0.035691,-0.035286,-0.034809,-0.034265,-0.033669,-0.033022,-0.032324,-0.031577,-0.030791,-0.029968,-0.029105,-0.028199,-0.027259,-0.026292,-0.025295,-0.024264,-0.023199,-0.022113,-0.020999,-0.019848,-0.018656,-0.017447,-0.016216,-0.014957,-0.013666,-0.012374,-0.011076,-0.009762,-0.008426,-0.0071064,-0.0057995,-0.0045011,-0.0032059,-0.0019601,-0.00076099,0.00039704,0.0015211,0.0025657,0.0035361,0.00444,0.0052851,0.0060294,0.0066813,0.007253,0.0077554,0.0081561,0.0084702,0.0087158,0.008906,0.0090171,0.0090673,0.009077,0.009058,0.0089932,0.0089012,0.0088008,0.0086981,0.0085784,0.0084559,0.0083456,0.0082489,0.0081561,0.00808,0.0080329,0.0080111,0.008006,0.0080239,0.0080709,0.0081385,0.0082227,0.0083283,0.0084595,0.0086051,0.0087647,0.0089389,0.0091291,0.0093246,0.009534,0.0097617,0.010011,0.010272,0.010554,0.010853,0.011163,0.011468,0.011775,0.012081,0.012381,0.012663,0.012938,0.013203,0.01345,0.013667,0.01386,0.014021,0.014144,0.014216,0.014244,0.014223,0.014147,0.014017,0.013842,0.013622,0.013357,0.013055,0.012725,0.012365,0.011974,0.011565,0.011144,0.010709,0.010259,0.009809,0.0093629,0.0089169,0.008468,0.0080336,0.0076175,0.0072152,0.0068216,0.006451,0.0061006,0.0057569,0.0054052,0.0050529,0.004694,0.0043143,0.003902,0.0034678,0.003012,0.0025227,0.0019876,0.0014143,0.00080232,0.00013917,-0.00058535,-0.0013597,-0.0021733,-0.0030275,-0.0039225,-0.0048422,-0.0057699,-0.006705,-0.0076465,-0.0085811,-0.0094904,-0.010371,-0.011221,-0.012031,-0.012786,-0.013488,-0.014142,-0.014747,-0.015293,-0.015784,-0.016225,-0.016619,-0.016962,-0.017258,-0.017514,-0.017739,-0.017925,-0.018075,-0.01819,-0.018277,-0.018327,-0.01834,-0.018314,-0.018256,-0.018154,-0.018006,-0.01781,-0.01757,-0.017282,-0.016942,-0.016551,-0.016117,-0.015634,-0.0151,-0.014515,-0.013889,-0.013225,-0.012527,-0.011797,-0.011049,-0.01029,-0.0095206,-0.0087387,-0.0079535,-0.007176,-0.0064053,-0.0056412,-0.0048946,-0.004181,-0.0034984,-0.0028439,-0.0022244,-0.0016533,-0.0011235,-0.00062632,-0.0001634,0.00025634,0.00064601,0.0010198,0.0013794,0.0017176,0.0020481,0.0023838,0.0027222,0.0030539,0.0033907,0.0037447,0.004111,0.0044823,0.00487,0.0052841,0.0057124,0.0061441,0.0065839,0.0070356,0.0074791,0.0079057,0.0083208,0.0087299,0.009112,0.0094655,0.0097982,0.010118,0.010405,0.010667,0.010915,0.011159,0.01138,0.011588,0.01179,0.011995,0.01218,0.01236,0.012545,0.012746,0.012946,0.013162,0.0134,0.013665,0.013943,0.014242,0.014564,0.014909,0.015264,0.015632,0.016013,0.016406,0.016804,0.017217,0.017642,0.018079,0.018524,0.018975,0.019423,0.019855,0.020268,0.020659,0.02102,0.021341,0.021623,0.021865,0.022053,0.022176,0.022233,0.022222,0.022134,0.021956,0.021694,0.021345,0.020898,0.020343,0.019688,0.018939,0.018093,0.01715,0.016133,0.015055,0.013916,0.012717,0.011479,0.010212,0.0089167,0.0075927,0.0062637,0.0049465,0.0036444,0.0023605,0.0011181,-6.5266e-05,-0.0011917,-0.0022661,-0.003278,-0.0042176,-0.0050969,-0.0059287,-0.0067104,-0.0074314,-0.0081047,-0.0087434,-0.0093469,-0.009904,-0.01043,-0.010941,-0.011442,-0.011921,-0.012396,-0.012881,-0.013377,-0.013868,-0.014363,-0.014871,-0.015381,-0.015871,-0.016343,-0.016798,-0.017221,-0.017592,-0.017914,-0.018193,-0.018417,-0.01858,-0.018688,-0.018748,-0.018749,-0.019132,-0.019462,-0.019731,-0.02,-0.020163,-0.020176,-0.020029,-0.019694,-0.019172,-0.018465,-0.017594,-0.016596,-0.015536,-0.014492,-0.013556,-0.012838,-0.012459,-0.01253,-0.013152,-0.014423,-0.016422,-0.019191,-0.022738,-0.02704,-0.032053,-0.037678,-0.043786,-0.050224,-0.056827,-0.063391,-0.069696,-0.075509,-0.080609,-0.084746,-0.087661,-0.089087,-0.088778,-0.08646,-0.081849,-0.074663,-0.06466,-0.051597,-0.035268,-0.015513,0.0077283,0.034466,0.064635,0.098091,0.13459,0.17382,0.21543,0.25897,0.30393,0.34976,0.39583,0.44147,0.48596,0.52853,0.56844,0.60494,0.63732,0.66497,0.68736,0.7041,0.71493,0.71974,0.7186,0.71169,0.69935,0.68206,0.66045,0.63518,0.60699,0.57664,0.54487,0.51236,0.47971,0.44748,0.41609,0.38589,0.35712,0.32997,0.30457,0.28102,0.25937,0.23969,0.222,0.20631,0.19259,0.18073,0.17064,0.16212,0.15496,0.14888,0.1436,0.13883,0.13428,0.12971,0.12491,0.11974,0.11412,0.10805,0.10156,0.094741,0.087735,0.08068,0.07372,0.066999,0.06064,0.054728,0.04932,0.044438,0.040079,0.0362,0.032743,0.029637,0.026818,0.024221,0.021795,0.0195,0.017321,0.015249,0.013288,0.011438,0.0097184,0.0089272,0.0082362,0.0075867,0.0069341,0.0023806,-0.00055641,-0.0034727,-0.0061735,-0.0085845,-0.010638,-0.012305,-0.013647,-0.014695,-0.015542,-0.016259,-0.016805,-0.017188,-0.017341,-0.017243,-0.016953,-0.016529,-0.016131,-0.015859,-0.015692,-0.01557,-0.015294,-0.014705,-0.013704,-0.012317,-0.010743,-0.0092173,-0.0079358,-0.0070927,-0.0067344,-0.0068208,-0.0071804,-0.0075691,-0.0077995,-0.0077346,-0.0073134,-0.0066557,-0.0059126,-0.0053346,-0.0051365,-0.0054169,-0.0062364,-0.0074704,-0.0089318,-0.010449,-0.011795,-0.012917,-0.0138,-0.014501,-0.015177,-0.015849,-0.016565,-0.017238,-0.017689,-0.017813,-0.017493,-0.016739,-0.015655,-0.014328,-0.012966,-0.011692,-0.010609,-0.00979,-0.0091827,-0.00875,-0.0083883,-0.0079726,-0.0074391,-0.0067297,-0.0058964,-0.0050577,-0.0043442,-0.0039428,-0.0039813,-0.0045197,-0.0055266,-0.0068435,-0.0082777,-0.0096359,-0.010735,-0.011513,-0.011947,-0.012047,-0.011883,-0.011491,-0.010945,-0.010332,-0.0097193,-0.0092343,-0.0088933,-0.0086504,-0.0084958,-0.0083704,-0.0083642,-0.0085249,-0.0089161,-0.0096003,-0.010484,-0.01146,-0.012337,-0.012876,-0.012949,-0.012423,-0.011405,-0.010129,-0.0088677,-0.0080347,-0.0078927,-0.0087094,-0.010615,-0.013491,-0.017228,-0.021457,-0.025856,-0.030157,-0.034112,-0.037769,-0.041154,-0.044396,-0.047613,-0.050779,-0.053877,-0.056815,-0.059491,-0.06185,-0.063883,-0.065654,-0.067247,-0.06886,-0.070621,-0.072792,-0.075432,-0.078528,-0.082075,-0.085836,-0.089742,-0.09356,-0.097077,-0.10032,-0.10298,-0.10512,-0.1066,-0.1073,-0.10736,-0.10656,-0.105,-0.10276,-0.099775,-0.096379,-0.092586,-0.088653,-0.084757,-0.080827,-0.077051,-0.073316,-0.069598,-0.065876,-0.061962,-0.057877,-0.05356,-0.049045,-0.044433,-0.039756,-0.035103,-0.03051,-0.026029,-0.021699,-0.017639,-0.013868,-0.010361,-0.0070247,-0.0037354,-0.0005246,0.0024923,0.0050599,0.006763,0.0074164,0.0069422,0.0056196,0.0038496,0.0020502,0.00065022,-0.00016903,-0.00043929,-0.00035014,-0.00025327,-0.00037044,-0.00093541,-0.0019806,-0.0033592,-0.0048422,-0.0061124,-0.0069235,-0.0071648,-0.0068429,-0.0083989,-0.0015965,-0.0031158,-0.0045281,-0.005883,-0.0071759,-0.0083425,-0.0094173,-0.010383,-0.01122,-0.011918,-0.012456,-0.012811,-0.012985,-0.012995,-0.012865,-0.012604,-0.012264,-0.011908,-0.01161,-0.011422,-0.011434,-0.011745,-0.012454,-0.01363,-0.015367,-0.017746,-0.020833,-0.024633,-0.029149,-0.034346,-0.040152,-0.046425,-0.053005,-0.059697,-0.066283,-0.072494,-0.078055,-0.082678,-0.086073,-0.087923,-0.087914,-0.085733,-0.081094,-0.073706,-0.063301,-0.049644,-0.03256,-0.011916,0.012373,0.04033,0.071895,0.10694,0.14529,0.18669,0.23079,0.27716,0.32531,0.37466,0.42454,0.4742,0.52281,0.5695,0.61335,0.65346,0.68897,0.71911,0.74324,0.76087,0.7717,0.77561,0.7727,0.76322,0.74763,0.72656,0.70073,0.67095,0.63811,0.60306,0.56662,0.52954,0.49249,0.45603,0.42057,0.38644,0.35386,0.32298,0.29389,0.26665,0.24135,0.21806,0.19682,0.17768,0.16069,0.14585,0.13308,0.12228,0.11327,0.10583,0.099695,0.094558,0.09012,0.086096,0.082229,0.078314,0.074218,0.069882,0.065307,0.060551,0.055718,0.050941,0.046358,0.042107,0.038308,0.035046,0.032363,0.030263,0.028703,0.0276,0.026838,0.026307,0.025883,0.02545,0.024911,0.024194,0.023281,0.022096,0.020721,0.018995,0.016919,0.01463,0.012264,0.0087408,0.0087232,0.0086944,0.0086493,0.0084975,0.0081836,0.007694,0.0069562,0.0060134,0.0048994,0.0036964,0.0026042,0.0017296,0.0011791,0.00097917,0.0010583,0.0013499,0.001718,0.0020632,0.0023743,0.002581,0.0027028,0.0027947,0.0029418,0.0032679,0.0037545,0.0043298,0.0048768,0.0051949,0.00515,0.0046137,0.0035693,0.0021343,0.00040817,-0.0014103,-0.0031011,-0.0044632,-0.0052962,-0.0055578,-0.0052771,-0.0046073,-0.0038496,-0.0032945,-0.0032031,-0.0037036,-0.0046895,-0.0059351,-0.0070836,-0.0078837,-0.0082578,-0.0082296,-0.0079082,-0.0074642,-0.0070237,-0.0066926,-0.00647,-0.006378,-0.0064186,-0.0064956,-0.0064471,-0.0061913,-0.0056704,-0.004953,-0.0040678,-0.0031299,-0.002272,-0.0015448,-0.000995,-0.00066615,-0.00053914,-0.00059992,-0.00070521,-0.00084046,-0.00097492,-0.0010938,-0.0012674,-0.0015904,-0.0021885,-0.0030966,-0.0041965,-0.0054131,-0.0065511,-0.0074696,-0.0080544,-0.0082811,-0.008259,-0.008132,-0.0081054,-0.0083863,-0.0090276,-0.0099869,-0.011079,-0.012135,-0.013012,-0.013651,-0.014108,-0.014517,-0.015019,-0.015749,-0.016781,-0.018147,-0.019816,-0.021691,-0.023668,-0.025604,-0.027334,-0.028792,-0.02997,-0.03091,-0.031668,-0.032262,-0.032838,-0.03345,-0.034108,-0.034807,-0.035479,-0.036125,-0.036729,-0.037311,-0.037998,-0.038784,-0.039669,-0.0406,-0.041517,-0.04233,-0.042916,-0.043213,-0.043326,-0.043444,-0.043773,-0.044567,-0.045958,-0.047979,-0.050572,-0.053515,-0.056782,-0.060148,-0.063325,-0.066118,-0.068162,-0.069433,-0.069778,-0.069117,-0.067726,-0.065618,-0.063091,-0.060342,-0.057417,-0.054633,-0.051839,-0.049134,-0.046617,-0.04418,-0.04198,-0.039858,-0.037817,-0.035893,-0.033889,-0.031733,-0.02916,-0.02593,-0.021906,-0.017051,-0.011599,-0.0059889,-0.00074609,0.003641,0.0068375,0.0087999,0.0096946,0.009865,0.0098075,0.0098942,0.010527,0.01193,0.014117,0.017,0.020216,0.023411,0.026259,0.028471,0.02999,0.030831,0.031241,0.031549,0.031887,0.032314,0.032686,0.032815,0.032483,0.031516,0.029935,0.027931,0.025738,0.023561,0.02204,0.020484,0.018895,0.017268,0.015594,0.013928,0.012265,0.010602,0.0089307,0.0073091,0.0057365,0.0042097,0.0027231,0.0013316,3.0819e-05,-0.0011875,-0.0023307,-0.0033539,-0.004267,-0.0050827,-0.0058075,-0.0064055,-0.0068895,-0.0072747,-0.0075649,-0.0077324,-0.0077938,-0.0077695,-0.007668,-0.0074754,-0.0072162,-0.0069168,-0.0065881,-0.0062213,-0.0058372,-0.0054562,-0.005084,-0.0047105,-0.0043485,-0.0040103,-0.0036964,-0.0033957,-0.0031151,-0.0028646,-0.0026509,-0.0024755,-0.0023521,-0.0022962,-0.0023208,-0.0024309,-0.0026298,-0.0029164,-0.0032876,-0.0037382,-0.0042555,-0.0048258,-0.0054364,-0.0060818,-0.0067422,-0.0073954,-0.0080195,-0.0086064,-0.0091312,-0.0095702,-0.0099059,-0.010144,-0.010274,-0.010291,-0.010196,-0.010008,-0.009728,-0.0093521,-0.0088831,-0.0083342,-0.0077,-0.0069752,-0.0061667,-0.0052862,-0.0043302,-0.0032953,-0.0021945,-0.0010371,0.00017578,0.0014367,0.002709,0.0039656,0.0051846,0.0063441,0.0073986,0.0083345,0.0091535,0.0098639,0.010448,0.010921,0.011303,0.011618,0.011854,0.012029,0.012168,0.012297,0.012409,0.012516,0.012642,0.012808,0.013,0.013223,0.01349,0.013817,0.014184,0.014587,0.015035,0.015541,0.016092,0.016683,0.017324,0.018025,0.018773,0.019554,0.020369,0.02122,0.0221,0.022999,0.023919,0.02486,0.025812,0.026754,0.027667,0.028532,0.029339,0.030074,0.03073,0.031307,0.031817,0.032262,0.032638,0.032942,0.033187,0.033366,0.033471,0.033495,0.033453,0.033336,0.033132,0.032831,0.032451,0.031983,0.031417,0.030747,0.029994,0.029151,0.028212,0.027171,0.026051,0.024853,0.023576,0.02222,0.020805,0.01934,0.017823,0.016254,0.014652,0.013035,0.011407,0.00977,0.0081347,0.0065209,0.0049246,0.0033402,0.0017685,0.00023562,-0.0012585,-0.0027134,-0.0041241,-0.0054562,-0.0067098,-0.0078876,-0.0089894,-0.0099844,-0.010878,-0.011676,-0.012381,-0.012964,-0.013436,-0.013809,-0.014088,-0.014252,-0.014319,-0.014302,-0.014205,-0.01401,-0.013732,-0.013386,-0.012969,-0.012475,-0.01192,-0.011322,-0.010681,-0.0099998,-0.0092959,-0.0085887,-0.0078799,-0.0071808,-0.0065112,-0.0058905,-0.0053184,-0.0048107,-0.0043802,-0.0040374,-0.0037727,-0.0036019,-0.0035295,-0.0035572,-0.0036654,-0.0038682,-0.0041588,-0.0045271,-0.0049409,-0.0054122,-0.005927,-0.0064691,-0.0070024,-0.007543,-0.008078,-0.0085942,-0.0090608,-0.0095017,-0.0099081,-0.010269,-0.010555,-0.01079,-0.010961,-0.011059,-0.011068,-0.011013,-0.010894,-0.010711,-0.01046,-0.010164,-0.0098219,-0.0094321,-0.0090037,-0.0085559,-0.008092,-0.0076158,-0.0071505,-0.0067061,-0.0062801,-0.0058693,-0.0054997,-0.0051701,-0.0048735,-0.0046026,-0.0043854,-0.0042094,-0.0040563,-0.003907,-0.0037818,-0.0036603,-0.0035193,-0.0033382,-0.0031379,-0.0029022,-0.0026102,-0.0022427,-0.0018198,-0.0013313,-0.00075799,-8.1856e-05,0.00068064,0.0015344,0.0024946,0.0035729,0.0047479,0.0060092,0.0073582,0.0087953,0.010297,0.011847,0.013446,0.015092,0.016766,0.018445,0.02012,0.021783,0.023411,0.024978,0.026474,0.02789,0.029217,0.030432,0.03153,0.032506,0.033362,0.034078,0.034656,0.035097,0.035418,0.035609,0.035674,0.035621,0.035472,0.035215,0.034852,0.034391,0.033858,0.033246,0.03256,0.03181,0.031026,0.030199,0.029329,0.028415,0.027479,0.026509,0.025498,0.024444,0.023365,0.022255,0.021109,0.019922,0.01871,0.017476,0.016213,0.014916,0.013598,0.01227,0.010926,0.0095598,0.0081848,0.0068237,0.0054721,0.0041259,0.0027971,0.0015144,0.00027291,-0.0009329,-0.0020923,-0.0031727,-0.0041808,-0.0051264,-0.006007,-0.0067986,-0.0075174,-0.008181,-0.0087909,-0.0093243,-0.0097945,-0.010216,-0.010591,-0.010903,-0.01117,-0.011413,-0.011636,-0.011828,-0.012004,-0.012179,-0.012352,-0.012514,-0.012678,-0.012856,-0.013043,-0.013229,-0.01342,-0.01362,-0.013815,-0.014001,-0.014181,-0.014361,-0.014528,-0.014684,-0.014831,-0.014969,-0.015078,-0.015164,-0.015225,-0.01526,-0.015253,-0.015219,-0.015159,-0.015078,-0.014964,-0.014835,-0.014695,-0.014544,-0.014372,-0.014201,-0.014029,-0.013854,-0.013671,-0.013496,-0.013323,-0.013148,-0.012968,-0.012798,-0.012632,-0.012464,-0.012297,-0.012141,-0.011985,-0.011818,-0.011642,-0.011465,-0.011271,-0.01105,-0.010812,-0.010561,-0.010286,-0.0099743,-0.0096384,-0.0092815,-0.0088879,-0.0084421,-0.0079597,-0.0074419,-0.0068733,-0.0062404,-0.0055659,-0.0048533,-0.0040894,-0.0032617,-0.0023968,-0.0014952,-0.0005427,0.00047198,0.0015151,0.0025834,0.0036865,0.0048328,0.0059849,0.0071436,0.0083214,0.0095282,0.010724,0.011907,0.013085,0.014264,0.015405,0.016511,0.017595,0.01867,0.019704,0.0207,0.021667,0.022614,0.023514,0.024368,0.025188,0.025991,0.026764,0.02751,0.028242,0.02897,0.02969,0.030395,0.031091,0.031786,0.032481,0.033168,0.033849,0.034523,0.035197,0.035854,0.036487,0.037087,0.03766,0.038187,0.038655,0.039054,0.039392,0.039651,0.039815,0.039869,0.039823,0.039662,0.03937,0.038936,0.038374,0.037681,0.036848,0.035867,0.034757,0.033524,0.032162,0.030665,0.029057,0.027355,0.02556,0.023672,0.02172,0.019731,0.017707,0.01565,0.013584,0.011538,0.0095114,0.0075021,0.0055293,0.0036228,0.001777,-1.5975e-05,-0.0017461,-0.0033856,-0.0049458,-0.0064395,-0.0078632,-0.0091863,-0.010421,-0.011584,-0.012677,-0.013671,-0.014583,-0.015433,-0.016229,-0.01694,-0.017583,-0.018175,-0.018723,-0.019198,-0.019617,-0.019999,-0.020349,-0.020642,-0.020891,-0.021113,-0.021307,-0.021451,-0.021559,-0.021644,-0.0217,-0.021713,-0.02169,-0.021641,-0.021551,-0.021414,-0.021239,-0.021036,-0.020792,-0.020517,-0.020221,-0.019915,-0.019585,-0.019247,-0.018907,-0.018571,-0.018227,-0.0179,-0.017593,-0.01731,-0.017046,-0.016821,-0.016634,-0.016482,-0.016356,-0.016276,-0.016236,-0.016228,-0.016245,-0.016303,-0.016389,-0.016489,-0.016594,-0.016716,-0.01684,-0.016949,-0.017035,-0.017109,-0.017152,-0.017145,-0.017077,-0.01696,-0.016774,-0.0165,-0.016133,-0.015687,-0.015146,-0.0145,-0.013753,-0.012926,-0.012016,-0.011017,-0.0099411,-0.0088108,-0.0076228,-0.0063749,-0.0050863,-0.0037806,-0.0024593,-0.001124,0.00019908,0.0014933,0.0027629,0.0040123,0.0052126,0.0063545,0.0074453,0.0084915,0.0094596,0.010349,0.011174,0.011947,0.012633,0.013233,0.013765,0.014242,0.014629,0.014935,0.015187,0.015408,0.01557,0.015689,0.01579,0.015897,0.015989,0.016077,0.016188,0.016346,0.016538,0.016774,0.017072,0.01745,0.017904,0.018436,0.019057,0.019777,0.020599,0.021514,0.022519,0.023609,0.024785,0.026029,0.027326,0.028662,0.030039,0.031433,0.032822,0.034179,0.035503,0.036766,0.037935,0.038978,0.039892,0.040652,0.041226,0.041586,0.041735,0.041659,0.041338,0.040757,0.039932,0.038866,0.037556,0.035999,0.034222,0.032241,0.030063,0.027695,0.025175,0.022531,0.019782,0.016947,0.014069,0.011184,0.0083078,0.0054562,0.0026664,-3.2134e-05,-0.0026314,-0.0051246,-0.0074832,-0.0096805,-0.011717,-0.013595,-0.015296,-0.016797,-0.01811,-0.019252,-0.020221,-0.021001,-0.021619,-0.022105,-0.022466,-0.022686,-0.022795,-0.022825,-0.022793,-0.022677,-0.022512,-0.022329,-0.022141,-0.021922,-0.021697,-0.021491,-0.021313,-0.02114,-0.020996,-0.020902,-0.02086,-0.020849,-0.020877,-0.02095,-0.021058,-0.021187,-0.021329,-0.02241,-0.023479,-0.024509,-0.025491,-0.026382,-0.027085,-0.027602,-0.027883,-0.027914,-0.027662,-0.027151,-0.026397,-0.025434,-0.024298,-0.023086,-0.021872,-0.020734,-0.019749,-0.019033,-0.018668,-0.018732,-0.019296,-0.020449,-0.022233,-0.024666,-0.027745,-0.031455,-0.035718,-0.040423,-0.045446,-0.050646,-0.055833,-0.060799,-0.065343,-0.069249,-0.072272,-0.074163,-0.074698,-0.073648,-0.070768,-0.065822,-0.058613,-0.048955,-0.036662,-0.021582,-0.0036321,0.017237,0.041049,0.067773,0.097291,0.12944,0.16403,0.20081,0.23945,0.27954,0.32067,0.36235,0.40397,0.44491,0.48448,0.52202,0.55677,0.58806,0.61528,0.6379,0.65545,0.66764,0.6743,0.67543,0.67114,0.6617,0.64753,0.62917,0.60719,0.58227,0.55511,0.5264,0.49678,0.46681,0.43699,0.4077,0.37927,0.35192,0.32581,0.30104,0.27772,0.2559,0.23568,0.21712,0.20033,0.18535,0.17217,0.16078,0.1511,0.14297,0.13619,0.13051,0.12568,0.1214,0.11737,0.11333,0.10909,0.10449,0.099425,0.093866,0.087873,0.081526,0.074931,0.068217,0.061547,0.055052,0.048829,0.042948,0.037482,0.032451,0.027827,0.023556,0.019597,0.015892,0.012358,0.0089202,0.0055388,0.0022,-0.0011549,-0.0045166,-0.0083098,-0.01249,-0.016854,-0.021204,-0.025389,-0.026159,-0.027054,-0.028005,-0.029042,-0.030145,-0.031302,-0.032649,-0.034159,-0.035877,-0.037846,-0.039957,-0.042101,-0.043981,-0.045428,-0.046392,-0.046848,-0.046919,-0.046735,-0.046394,-0.045983,-0.045464,-0.044855,-0.044157,-0.043303,-0.042255,-0.041,-0.039549,-0.037992,-0.036404,-0.034888,-0.033513,-0.032231,-0.031014,-0.029818,-0.02861,-0.027438,-0.026325,-0.025343,-0.024537,-0.023868,-0.023345,-0.022877,-0.022419,-0.021996,-0.021657,-0.0215,-0.021526,-0.021693,-0.021995,-0.022333,-0.022689,-0.02305,-0.023437,-0.023874,-0.024302,-0.024656,-0.024872,-0.024803,-0.024379,-0.023578,-0.022468,-0.021179,-0.019846,-0.018654,-0.017725,-0.017018,-0.016465,-0.015955,-0.015399,-0.014719,-0.013832,-0.012777,-0.011583,-0.010242,-0.0087704,-0.0071641,-0.0054472,-0.0036409,-0.0017495,0.00012639,0.0019627,0.0037393,0.005404,0.006889,0.0081262,0.0091225,0.0099185,0.010515,0.011017,0.01153,0.012192,0.01309,0.014298,0.015877,0.01781,0.019947,0.022116,0.02413,0.025834,0.027113,0.027918,0.028354,0.028543,0.028564,0.02848,0.028265,0.027915,0.027346,0.026523,0.025541,0.024483,0.023474,0.02261,0.021942,0.021558,0.021412,0.02145,0.02156,0.021541,0.021223,0.020437,0.019089,0.01718,0.014772,0.012039,0.0091971,0.0064372,0.0038938,0.001657,-0.00036391,-0.0023041,-0.0043857,-0.0068403,-0.0097449,-0.013229,-0.017192,-0.021454,-0.025911,-0.030225,-0.034254,-0.037716,-0.040365,-0.042203,-0.043048,-0.04303,-0.042353,-0.041181,-0.03993,-0.038693,-0.037731,-0.037239,-0.037147,-0.037536,-0.038221,-0.039046,-0.039815,-0.040185,-0.040055,-0.039337,-0.038066,-0.036389,-0.034461,-0.032469,-0.030537,-0.028732,-0.027147,-0.025878,-0.024891,-0.024126,-0.023513,-0.022932,-0.022342,-0.021705,-0.021119,-0.020711,-0.020436,-0.020278,-0.020146,-0.019964,-0.019665,-0.01909,-0.01826,-0.017247,-0.016203,-0.015387,-0.015029,-0.015402,-0.01663,-0.018638,-0.021285,-0.024237,-0.027155,-0.029664,-0.031495,-0.032669,-0.033827,-0.034953,-0.036034,-0.037059,-0.038039,-0.038942,-0.039756,-0.040469,-0.041083,-0.041564,-0.041892,-0.042046,-0.042022,-0.041801,-0.041377,-0.040752,-0.03993,-0.038918,-0.037725,-0.036355,-0.034812,-0.033115,-0.031275,-0.029308,-0.027216,-0.025034,-0.022786,-0.020493,-0.018154,-0.015819,-0.013512,-0.011256,-0.009048,-0.0069414,-0.0049562,-0.0031079,-0.0013821,0.00017275,0.0015479,0.0027381,0.0037665,0.0045815,0.0051747,0.0055405,0.0057047,0.0056188,0.0052945,0.0047588,0.0040789,0.003242,0.0022919,0.0012702,0.00023746,-0.0008467,-0.0019742,-0.0031368,-0.0042968,-0.0054973,-0.0067189,-0.0079337,-0.0090866,-0.010203,-0.011265,-0.012255,-0.013138,-0.013944,-0.014665,-0.015291,-0.015798,-0.016208,-0.016521,-0.016738,-0.016859,-0.0169,-0.016871,-0.016782,-0.016647,-0.016472,-0.016269,-0.016047,-0.015829,-0.015605,-0.015382,-0.015168,-0.014991,-0.014834,-0.014696,-0.014572,-0.014476,-0.014371,-0.014243,-0.014085,-0.013933,-0.013777,-0.013629,-0.013496,-0.013409,-0.013336,-0.01325,-0.013121,-0.012953,-0.012719,-0.012408,-0.012015,-0.011569,-0.011064,-0.010491,-0.0098355,-0.0091144,-0.008321,-0.0074473,-0.006491,-0.0054821,-0.0044295,-0.0033338,-0.0021954,-0.0010431,0.00011616,0.0012849,0.0024658,0.0036336,0.0047862,0.0059288,0.0070646,0.0081667,0.0092295,0.010254,0.011243,0.012173,0.013045,0.013867,0.014644,0.015354,0.015994,0.016564,0.01707,0.017504,0.017872,0.018193,0.018484,0.018748,0.018982,0.019189,0.019369,0.019515,0.01962,0.019689,0.019731,0.01976,0.019775,0.019781,0.019782,0.019786,0.019786,0.019776,0.019756,0.019735,0.019708,0.019668,0.019608,0.019534,0.01944,0.019311,0.019134,0.018916,0.018655,0.01834,0.017961,0.017523,0.017031,0.016471,0.015829,0.015109,0.014319,0.013449,0.012492,0.011458,0.010367,0.0092169,0.0080056,0.0067447,0.0054602,0.0041507,0.0028137,0.0014566,0.00010506,-0.0012431,-0.0025892,-0.0039233,-0.0052135,-0.0064571,-0.0076535,-0.008796,-0.0098601,-0.010853,-0.011784,-0.012652,-0.013439,-0.014152,-0.014801,-0.015386,-0.015891,-0.016332,-0.016721,-0.017058,-0.017329,-0.017543,-0.017714,-0.017831,-0.017887,-0.017895,-0.017872,-0.017809,-0.0177,-0.017559,-0.017394,-0.017191,-0.016946,-0.016671,-0.016381,-0.016064,-0.015731,-0.015397,-0.015078,-0.014766,-0.014473,-0.014214,-0.014,-0.013819,-0.013686,-0.013612,-0.013602,-0.013642,-0.01375,-0.01393,-0.014181,-0.014481,-0.014846,-0.015271,-0.015748,-0.016246,-0.016779,-0.017338,-0.01791,-0.018459,-0.019001,-0.019525,-0.020017,-0.02044,-0.020812,-0.021127,-0.021374,-0.021519,-0.021589,-0.021582,-0.021497,-0.021304,-0.021037,-0.020701,-0.020301,-0.019818,-0.019291,-0.018729,-0.01814,-0.017513,-0.016879,-0.016245,-0.015618,-0.014997,-0.014407,-0.013857,-0.013352,-0.012897,-0.012507,-0.012179,-0.011906,-0.0117,-0.011564,-0.011489,-0.011465,-0.011508,-0.011615,-0.011766,-0.011941,-0.012161,-0.012414,-0.012674,-0.01294,-0.0137,-0.014408,-0.015027,-0.015498,-0.015871,-0.016146,-0.01631,-0.016352,-0.016311,-0.016175,-0.015908,-0.015467,-0.014866,-0.014069,-0.013038,-0.011751,-0.01026,-0.0085928,-0.0067892,-0.0049157,-0.0031154,-0.0014948,-0.00016276,0.00077223,0.0011581,0.00092027,1.7899e-05,-0.001554,-0.0038138,-0.0066789,-0.010022,-0.013677,-0.017492,-0.021232,-0.024634,-0.027422,-0.029361,-0.030158,-0.029519,-0.027154,-0.022818,-0.016245,-0.0071818,0.0045941,0.019235,0.036867,0.057571,0.081375,0.10823,0.13803,0.17062,0.2058,0.24331,0.28281,0.32392,0.36619,0.40909,0.45199,0.4942,0.53496,0.57351,0.60904,0.64075,0.66793,0.68999,0.70642,0.71687,0.72114,0.71926,0.7114,0.69786,0.67912,0.65582,0.62869,0.59847,0.56593,0.53187,0.49704,0.46205,0.42744,0.39369,0.36117,0.3301,0.30066,0.27295,0.24706,0.22302,0.20083,0.18051,0.1621,0.14556,0.13083,0.11783,0.10648,0.096596,0.087949,0.080317,0.073489,0.067205,0.06122,0.055343,0.049461,0.04346,0.03728,0.030937,0.024527,0.018133,0.01186,0.0058336,0.00021316,-0.004909,-0.0094684,-0.01342,-0.016713,-0.019381,-0.021488,-0.023106,-0.024284,-0.02512,-0.025714,-0.026148,-0.026458,-0.026709,-0.026951,-0.027206,-0.027657,-0.028313,-0.029071,-0.029819,-0.031707,-0.030879,-0.030176,-0.029533,-0.028909,-0.028212,-0.027355,-0.02636,-0.025274,-0.024191,-0.023217,-0.022351,-0.021619,-0.020941,-0.020168,-0.019187,-0.017915,-0.01637,-0.014694,-0.013049,-0.011728,-0.010886,-0.010587,-0.010791,-0.011311,-0.011914,-0.012327,-0.012316,-0.011856,-0.010896,-0.009526,-0.0078884,-0.0061427,-0.0044588,-0.0028966,-0.0015019,-0.000322,0.00073649,0.0017238,0.002705,0.0036882,0.0046809,0.0057378,0.0068512,0.0080056,0.0091827,0.010316,0.011356,0.012277,0.013144,0.014036,0.014966,0.015927,0.016942,0.018016,0.019107,0.02017,0.021155,0.022051,0.022812,0.02341,0.023897,0.024312,0.024734,0.025272,0.025999,0.027023,0.028312,0.029836,0.031593,0.033512,0.035597,0.037784,0.04001,0.04223,0.044292,0.046112,0.047554,0.048508,0.048931,0.048788,0.048221,0.047386,0.046492,0.045762,0.045306,0.045243,0.045545,0.046127,0.046877,0.047641,0.048388,0.049066,0.049698,0.050317,0.050943,0.051583,0.052167,0.052605,0.052772,0.052543,0.051843,0.050612,0.048829,0.046503,0.043709,0.040591,0.037343,0.034176,0.031211,0.028526,0.026097,0.023885,0.021824,0.019796,0.017761,0.015736,0.013734,0.011775,0.0097261,0.0075023,0.0049572,0.0019822,-0.0014507,-0.0053384,-0.0096423,-0.014274,-0.01911,-0.02389,-0.028391,-0.032449,-0.035921,-0.038796,-0.041177,-0.04319,-0.045072,-0.046953,-0.048985,-0.051309,-0.05378,-0.056339,-0.058735,-0.060691,-0.062092,-0.062733,-0.062719,-0.062115,-0.060879,-0.05923,-0.057181,-0.054872,-0.052357,-0.049571,-0.046632,-0.043538,-0.04033,-0.037204,-0.03422,-0.031482,-0.028907,-0.026418,-0.024043,-0.021836,-0.019906,-0.018482,-0.017755,-0.017877,-0.01886,-0.020617,-0.022995,-0.025744,-0.028541,-0.031173,-0.033378,-0.034992,-0.035905,-0.036147,-0.035966,-0.035658,-0.035554,-0.035942,-0.036878,-0.038375,-0.040295,-0.042485,-0.044798,-0.046979,-0.048828,-0.050129,-0.050757,-0.050749,-0.050185,-0.049162,-0.047775,-0.046116,-0.045273,-0.044275,-0.043133,-0.041858,-0.040503,-0.039059,-0.03753,-0.035926,-0.034299,-0.032635,-0.030934,-0.029195,-0.027469,-0.02574,-0.024001,-0.022247,-0.020512,-0.018791,-0.017067,-0.015328,-0.013596,-0.011873,-0.010142,-0.0083871,-0.006618,-0.0048561,-0.0030852,-0.0012886,0.00053488,0.0023493,0.0041693,0.0060107,0.0078819,0.0097321,0.01157,0.013407,0.015255,0.017055,0.018812,0.020532,0.022228,0.023834,0.025346,0.026765,0.028099,0.029287,0.030327,0.031225,0.031999,0.032602,0.033042,0.033328,0.033476,0.033453,0.033266,0.032929,0.03246,0.031845,0.031102,0.030252,0.029313,0.028282,0.027178,0.026015,0.024799,0.023538,0.022246,0.020938,0.019614,0.018289,0.016978,0.01569,0.014411,0.013166,0.011965,0.010817,0.0097002,0.0086518,0.0076794,0.0067869,0.0059446,0.005192,0.0045291,0.0039522,0.0034248,0.0029925,0.0026542,0.0024062,0.0022123,0.0021227,0.0021326,0.0022319,0.0023796,0.0026205,0.0029438,0.0033358,0.003759,0.0042568,0.0048194,0.0054324,0.0060615,0.0067397,0.0074512,0.0081765,0.0088837,0.0095971,0.010302,0.010981,0.011612,0.012211,0.012766,0.013261,0.013679,0.014034,0.014318,0.014524,0.014648,0.014704,0.014693,0.014612,0.014462,0.014252,0.013985,0.01366,0.013277,0.012846,0.012373,0.01186,0.011304,0.010715,0.010096,0.0094505,0.0087701,0.0080669,0.0073469,0.0066159,0.0058661,0.0051128,0.0043616,0.0036171,0.0028708,0.0021386,0.001425,0.00073447,6.3633e-05,-0.00056877,-0.0011585,-0.0017017,-0.0021954,-0.0026214,-0.0029786,-0.0032668,-0.0034787,-0.0035999,-0.0036338,-0.0035843,-0.0034412,-0.0031944,-0.0028525,-0.0024259,-0.0019083,-0.0013001,-0.00061977,0.00011215,0.00089319,0.0017138,0.0025489,0.0033717,0.0041716,0.0049328,0.0056276,0.0062291,0.0067265,0.0071081,0.0073549,0.0074504,0.0073916,0.0071731,0.0067855,0.0062229,0.005495,0.0046065,0.0035641,0.0023787,0.0010798,-0.00031948,-0.0018011,-0.0033444,-0.0049071,-0.006475,-0.0080262,-0.0095376,-0.010962,-0.012292,-0.013513,-0.014611,-0.015544,-0.016317,-0.016929,-0.017378,-0.017633,-0.017717,-0.017644,-0.01743,-0.01706,-0.016568,-0.015983,-0.015332,-0.014612,-0.01386,-0.013111,-0.012396,-0.011711,-0.011085,-0.010544,-0.01011,-0.0097706,-0.0095418,-0.0094401,-0.0094774,-0.0096298,-0.009902,-0.010295,-0.010806,-0.011401,-0.012076,-0.012823,-0.013633,-0.014469,-0.01533,-0.016204,-0.017078,-0.017923,-0.018744,-0.019532,-0.020279,-0.020967,-0.021612,-0.022208,-0.02275,-0.023229,-0.023665,-0.024051,-0.024384,-0.024661,-0.024903,-0.025106,-0.025266,-0.025382,-0.025466,-0.025511,-0.025505,-0.025449,-0.025346,-0.025183,-0.024948,-0.024638,-0.024251,-0.023771,-0.023189,-0.022514,-0.02175,-0.020895,-0.019945,-0.018916,-0.01781,-0.016616,-0.015327,-0.01396,-0.012526,-0.011023,-0.00946,-0.0078719,-0.0062807,-0.0046926,-0.0031142,-0.0015839,-0.00012519,0.0012585,0.0025652,0.0037635,0.0048378,0.0057981,0.0066577,0.0074021,0.0080241,0.0085447,0.0089884,0.0093591,0.0096602,0.0099244,0.010185,0.010454,0.01073,0.011036,0.011396,0.011822,0.012299,0.012843,0.013464,0.014157,0.014891,0.015659,0.016463,0.017305,0.018166,0.019058,0.019992,0.020972,0.021967,0.022958,0.023923,0.024838,0.025664,0.026382,0.02698,0.027452,0.027784,0.027972,0.028008,0.027892,0.027626,0.027211,0.026652,0.025958,0.025148,0.024234,0.023232,0.022156,0.021039,0.019899,0.018753,0.017609,0.016494,0.015413,0.014367,0.013347,0.012367,0.011423,0.010507,0.0095972,0.008709,0.0078366,0.0069765,0.0061175,0.0052901,0.0045,0.003751,0.0030336,0.0023735,0.0017605,0.0011803,0.00061305,8.2535e-05,-0.00041571,-0.00087986,-0.0013033,-0.0016398,-0.001886,-0.0020489,-0.0021436,-0.0021582,-0.0021223,-0.0020636,-0.0019957,-0.0018889,-0.001742,-0.0012912,-0.00075566,-0.00011429,0.00079572,0.0018143,0.0029077,0.0040621,0.005236,0.0063824,0.0074488,0.0084014,0.009183,0.0097327,0.0099853,0.0099023,0.0094326,0.0085269,0.0071298,0.0052094,0.0027265,-0.0003524,-0.0040577,-0.0083918,-0.013349,-0.018903,-0.025014,-0.031599,-0.038549,-0.045717,-0.052921,-0.059951,-0.066577,-0.072561,-0.077663,-0.081645,-0.084262,-0.085256,-0.08435,-0.081258,-0.075687,-0.067359,-0.05603,-0.041512,-0.023678,-0.0024617,0.022141,0.050077,0.081236,0.11545,0.15247,0.19202,0.23372,0.27716,0.32185,0.36726,0.41279,0.45782,0.50163,0.54353,0.58277,0.61863,0.65045,0.67761,0.6996,0.71601,0.72658,0.73117,0.72978,0.72259,0.70993,0.69225,0.67012,0.64422,0.6153,0.58409,0.55133,0.51773,0.48398,0.45062,0.41815,0.38696,0.35736,0.32953,0.30359,0.27962,0.25768,0.2378,0.21996,0.20415,0.19035,0.17845,0.16829,0.15967,0.15237,0.14609,0.14052,0.13537,0.13036,0.12523,0.11977,0.11382,0.10732,0.10024,0.092614,0.084525,0.076127,0.067566,0.059002,0.050589,0.042485,0.034804,0.027638,0.021051,0.015091,0.0097619,0.0050504,0.00092211,-0.002665,-0.0057673,-0.0084408,-0.01074,-0.012716,-0.014411,-0.015863,-0.0171,-0.018415,-0.01974,-0.021068,-0.022392,-0.031459,-0.031871,-0.031681,-0.030955,-0.029957,-0.028857,-0.02777,-0.026809,-0.025935,-0.025046,-0.024068,-0.022909,-0.021671,-0.020403,-0.019197,-0.018166,-0.017339,-0.01674,-0.016308,-0.015924,-0.015558,-0.015115,-0.014592,-0.014001,-0.013344,-0.012664,-0.011945,-0.01115,-0.0103,-0.0093158,-0.0081705,-0.006843,-0.0053351,-0.0037201,-0.0020178,-0.00024806,0.0014931,0.0032091,0.0048661,0.0064565,0.0079846,0.009422,0.010849,0.012322,0.013798,0.01526,0.016584,0.01768,0.018445,0.018796,0.018817,0.018607,0.018311,0.018105,0.01809,0.018357,0.018877,0.019542,0.02028,0.020956,0.021481,0.021792,0.021874,0.02185,0.021889,0.022148,0.022793,0.023822,0.02519,0.026708,0.02814,0.029352,0.030269,0.030921,0.03145,0.03197,0.032675,0.033615,0.034774,0.036106,0.037483,0.03881,0.039991,0.040954,0.041729,0.042288,0.042623,0.042701,0.04246,0.041854,0.040781,0.039169,0.037008,0.034329,0.03124,0.027857,0.024332,0.020811,0.017384,0.014124,0.011068,0.0082282,0.0055823,0.003092,0.00071558,-0.0015593,-0.0037857,-0.0059764,-0.0080987,-0.010137,-0.012052,-0.013852,-0.015506,-0.016981,-0.018365,-0.019732,-0.02123,-0.022951,-0.024952,-0.027263,-0.02973,-0.032129,-0.034263,-0.035965,-0.03725,-0.038188,-0.038966,-0.039823,-0.040922,-0.042322,-0.044079,-0.046117,-0.048378,-0.050773,-0.053198,-0.055718,-0.058294,-0.060892,-0.063538,-0.066058,-0.068453,-0.070573,-0.07226,-0.073519,-0.074133,-0.074152,-0.073626,-0.07259,-0.071374,-0.070106,-0.069052,-0.068398,-0.068051,-0.068043,-0.068079,-0.067874,-0.067166,-0.065669,-0.063312,-0.060118,-0.056215,-0.051918,-0.04746,-0.04305,-0.038819,-0.034761,-0.030789,-0.026839,-0.022836,-0.018894,-0.015159,-0.011793,-0.0090063,-0.006841,-0.0052414,-0.0040087,-0.0028205,-0.0014459,0.00032986,0.0025237,0.0049712,0.007453,0.0096636,0.011365,0.012361,0.012567,0.012101,0.011163,0.010023,0.0089463,0.0081058,0.0075613,0.0071532,0.0066432,0.0058468,0.0058793,0.0059314,0.0060439,0.0062341,0.0065173,0.0068867,0.0073328,0.0078636,0.0084857,0.0091858,0.0099513,0.010783,0.011678,0.012617,0.013581,0.014564,0.015557,0.016538,0.017496,0.018428,0.019328,0.02018,0.020979,0.021719,0.022395,0.022995,0.023517,0.023963,0.024334,0.024628,0.024852,0.02501,0.025104,0.02514,0.025118,0.025044,0.02492,0.024751,0.024539,0.024289,0.024004,0.02369,0.02335,0.022989,0.022609,0.022211,0.021795,0.02136,0.020905,0.020424,0.01992,0.019392,0.018837,0.018246,0.017625,0.016971,0.016281,0.015546,0.01478,0.013984,0.013159,0.012304,0.011442,0.010576,0.0097086,0.0088438,0.0080073,0.0072018,0.0064305,0.0057053,0.0050515,0.0044689,0.003956,0.0035263,0.0031951,0.0029524,0.0027865,0.0027092,0.0027245,0.0028143,0.0029594,0.0031696,0.0034391,0.0037424,0.0040534,0.0043791,0.0047072,0.0050099,0.0052609,0.0054685,0.0056206,0.0056932,0.0056637,0.0055426,0.0053213,0.0049816,0.0045072,0.0039117,0.0031934,0.0023452,0.0013634,0.00026971,-0.00092496,-0.002214,-0.0035896,-0.0050288,-0.0065178,-0.0080457,-0.0096013,-0.011165,-0.012718,-0.014245,-0.01573,-0.017158,-0.018513,-0.019783,-0.020957,-0.022033,-0.023001,-0.023851,-0.024577,-0.025189,-0.02568,-0.026047,-0.026291,-0.026428,-0.026451,-0.026356,-0.02614,-0.025824,-0.025395,-0.024854,-0.024203,-0.023467,-0.022638,-0.02172,-0.020719,-0.019658,-0.018532,-0.017344,-0.016098,-0.014813,-0.013486,-0.012118,-0.010713,-0.0092864,-0.0078467,-0.006399,-0.0049493,-0.003513,-0.0021081,-0.00073738,0.0005977,0.0018921,0.0031243,0.0043385,0.0050554,0.0057161,0.0063162,0.006806,0.0072698,0.0077543,0.0082335,0.0087333,0.0092634,0.0098343,0.010403,0.010958,0.011475,0.011925,0.012226,0.012327,0.012174,0.011708,0.01083,0.0094805,0.0076001,0.0051339,0.0020086,-0.0018065,-0.0063219,-0.01153,-0.017411,-0.02389,-0.030856,-0.038168,-0.045653,-0.053092,-0.060229,-0.066788,-0.072464,-0.076926,-0.079829,-0.080835,-0.079594,-0.075773,-0.069067,-0.059212,-0.045969,-0.029168,-0.0086981,0.015474,0.043331,0.074766,0.1096,0.14757,0.18838,0.23166,0.27697,0.32382,0.3717,0.42,0.46808,0.51525,0.56076,0.60386,0.64378,0.67975,0.71111,0.73724,0.75764,0.77194,0.77993,0.78153,0.77682,0.76607,0.74968,0.72818,0.70224,0.67259,0.64001,0.60531,0.56924,0.53253,0.49581,0.45964,0.42444,0.39058,0.35834,0.32791,0.29941,0.27295,0.2486,0.22643,0.20646,0.18872,0.17317,0.15974,0.14829,0.13864,0.13056,0.12375,0.11791,0.11271,0.10786,0.10308,0.098135,0.092869,0.087183,0.081043,0.074474,0.067558,0.060429,0.053235,0.046131,0.039266,0.032786,0.026799,0.021386,0.0166,0.012467,0.0089735,0.006074,0.003702,0.0017757,0.00019853,-0.0011228,-0.002263,-0.003277,-0.0042256,-0.0051167,-0.0062756,-0.0076545,-0.0091536,-0.010676,-0.018124,-0.01824,-0.018185,-0.017933,-0.017608,-0.017305,-0.017066,-0.016968,-0.016908,-0.016804,-0.016562,-0.016051,-0.015294,-0.014316,-0.013197,-0.012075,-0.010997,-0.010049,-0.0092454,-0.0085495,-0.0080174,-0.0076609,-0.0075705,-0.0078248,-0.0084603,-0.0095102,-0.010929,-0.012622,-0.014501,-0.016351,-0.017989,-0.019244,-0.019983,-0.020175,-0.019824,-0.019009,-0.017937,-0.016777,-0.015765,-0.015081,-0.014768,-0.014812,-0.014982,-0.015009,-0.014666,-0.013726,-0.012169,-0.010044,-0.0075165,-0.004897,-0.0023991,-0.00028224,0.0013095,0.0023749,0.0029752,0.0033727,0.003819,0.0045044,0.005594,0.0070529,0.008812,0.010714,0.012551,0.014211,0.015602,0.016697,0.017569,0.018233,0.018741,0.019071,0.019183,0.019091,0.018761,0.018179,0.017408,0.016499,0.015591,0.014734,0.013941,0.013211,0.012441,0.011553,0.010496,0.009259,0.0079563,0.006661,0.0055068,0.0046176,0.0040281,0.0037652,0.0037442,0.0038313,0.0038717,0.0036961,0.0032253,0.0024372,0.0013615,0.00018617,-0.00089574,-0.001677,-0.0020258,-0.0019178,-0.0014272,-0.00079194,-0.00036287,-0.00040076,-0.0011888,-0.0027644,-0.0050587,-0.0078186,-0.010688,-0.013452,-0.015931,-0.018017,-0.019747,-0.021097,-0.022155,-0.022924,-0.023413,-0.023699,-0.0238,-0.02375,-0.023621,-0.023494,-0.023547,-0.023952,-0.02485,-0.026346,-0.028438,-0.031036,-0.034063,-0.037307,-0.040558,-0.043642,-0.046329,-0.048679,-0.050698,-0.052532,-0.054401,-0.05623,-0.05808,-0.059816,-0.061225,-0.062334,-0.06288,-0.063024,-0.06289,-0.062522,-0.062196,-0.061829,-0.061409,-0.060819,-0.059717,-0.058137,-0.055985,-0.053327,-0.050333,-0.047123,-0.044073,-0.041479,-0.039563,-0.038488,-0.038146,-0.038333,-0.03873,-0.038954,-0.038679,-0.037706,-0.035951,-0.03357,-0.030829,-0.028046,-0.025604,-0.023707,-0.022519,-0.022059,-0.022142,-0.022613,-0.023193,-0.02366,-0.023825,-0.023459,-0.022506,-0.020903,-0.018636,-0.01579,-0.012471,-0.0089469,-0.0054804,-0.0022748,0.00043606,0.0025133,0.0037751,0.004102,0.0035412,0.0043347,0.0049537,0.0055426,0.0060876,0.006576,0.0070015,0.0073552,0.0076288,0.0078146,0.0079086,0.0079044,0.0078009,0.0075993,0.0073031,0.0069113,0.0064335,0.0058813,0.0052665,0.0045916,0.0038737,0.0031307,0.0023794,0.0016219,0.00087863,0.0001703,-0.00048655,-0.0010927,-0.0016299,-0.0020803,-0.0024342,-0.0026978,-0.00286,-0.0029115,-0.0028555,-0.0027068,-0.0024653,-0.0021329,-0.001725,-0.0012587,-0.00073774,-0.00016576,0.00043844,0.001064,0.0017076,0.0023656,0.0030166,0.0036534,0.0042725,0.0048708,0.0054295,0.0059482,0.0064291,0.0068756,0.0072769,0.0076384,0.0079664,0.0082674,0.0085357,0.0087756,0.0089948,0.0092017,0.0093977,0.0095849,0.0097722,0.0099684,0.010179,0.010396,0.010626,0.01087,0.011132,0.011398,0.011664,0.011932,0.012204,0.012459,0.012695,0.012906,0.013097,0.013248,0.013354,0.013413,0.013432,0.013398,0.013309,0.013164,0.013128,0.012932,0.012699,0.012428,0.012339,0.01221,0.012034,0.01181,0.011557,0.011279,0.010987,0.010686,0.010395,0.010111,0.0098224,0.0095086,0.0091509,0.008702,0.0080956,0.0072533,0.0061045,0.0045596,0.0025261,-7.957e-05,-0.0033055,-0.0071916,-0.011755,-0.016978,-0.022787,-0.029082,-0.035733,-0.042573,-0.049384,-0.055924,-0.061942,-0.067166,-0.071297,-0.074034,-0.075091,-0.074186,-0.071037,-0.065372,-0.056959,-0.045598,-0.031121,-0.013405,0.007606,0.031902,0.059412,0.090022,0.12354,0.15974,0.19829,0.23887,0.28109,0.32448,0.36852,0.41264,0.45622,0.49854,0.53887,0.57646,0.61056,0.6405,0.66563,0.68545,0.6996,0.70784,0.71008,0.70644,0.69717,0.68268,0.66351,0.64031,0.61383,0.58485,0.55412,0.52239,0.49033,0.45854,0.42748,0.3975,0.36892,0.34194,0.31662,0.29303,0.2712,0.25111,0.23276,0.21613,0.2012,0.18795,0.1763,0.16615,0.15739,0.14985,0.14331,0.13755,0.13233,0.12742,0.1226,0.11765,0.11244,0.10687,0.1009,0.094531,0.087831,0.080916,0.073921,0.066977,0.060237,0.053842,0.047915,0.042528,0.037747,0.033608,0.030127,0.027258,0.024957,0.02316,0.021795,0.020761,0.019968,0.019346,0.01881,0.018316,0.017319,0.015822,0.013999,0.012018,0.0075088,0.0083145,0.0087133,0.0086338,0.0079741,0.0068509,0.0055244,0.0042243,0.0032332,0.002631,0.0023283,0.0022131,0.0019855,0.0014547,0.00045286,-0.0010844,-0.0030441,-0.0052926,-0.0075638,-0.0095546,-0.011094,-0.012055,-0.012484,-0.01252,-0.012381,-0.012344,-0.012556,-0.013021,-0.013657,-0.014264,-0.014663,-0.01474,-0.014457,-0.013896,-0.013116,-0.01214,-0.011019,-0.009706,-0.0081966,-0.0065585,-0.0049214,-0.0035449,-0.0025756,-0.0021049,-0.0021714,-0.0026144,-0.0032721,-0.0039277,-0.0044542,-0.004888,-0.0052262,-0.0055884,-0.0060945,-0.0068322,-0.0078921,-0.009226,-0.010776,-0.012453,-0.01408,-0.015579,-0.016826,-0.01775,-0.018351,-0.018682,-0.018922,-0.019261,-0.019818,-0.020702,-0.02185,-0.02312,-0.0243,-0.025138,-0.025472,-0.025231,-0.024456,-0.023364,-0.022185,-0.021173,-0.020523,-0.0203,-0.020506,-0.021013,-0.02164,-0.022225,-0.022603,-0.022715,-0.022546,-0.022107,-0.0215,-0.020814,-0.020165,-0.019613,-0.019147,-0.01878,-0.018486,-0.018244,-0.018056,-0.017885,-0.017712,-0.017469,-0.017033,-0.016332,-0.01533,-0.014126,-0.012909,-0.011849,-0.01114,-0.010839,-0.010916,-0.011286,-0.011803,-0.012451,-0.013197,-0.014094,-0.015257,-0.016701,-0.018456,-0.020416,-0.022454,-0.024446,-0.026168,-0.027469,-0.028288,-0.028658,-0.028749,-0.028788,-0.02906,-0.029809,-0.03118,-0.03317,-0.035783,-0.038873,-0.042288,-0.045908,-0.049514,-0.053021,-0.056198,-0.058887,-0.061151,-0.062917,-0.064403,-0.065668,-0.066737,-0.067786,-0.068587,-0.06916,-0.069432,-0.069238,-0.068696,-0.06757,-0.065834,-0.063445,-0.060229,-0.056395,-0.052038,-0.047457,-0.043005,-0.038819,-0.035122,-0.031883,-0.028966,-0.02621,-0.023366,-0.02029,-0.016908,-0.013255,-0.0094582,-0.0057482,-0.0023372,0.0005564,0.0027987,0.0044242,0.0054576,0.0060258,0.0062212,0.0061334,0.0060012,0.0059711,0.0062464,0.0069505,0.0080431,0.0094618,0.010943,0.012245,0.013136,0.013366,0.012882,0.011662,0.0098287,0.0076075,0.005233,0.0030796,0.0014269,0.00047107,0.00029502,-0.00066306,0.0066088,0.005688,0.0046963,0.0037666,0.0028909,0.0024976,0.0022521,0.002171,0.0022258,0.0023882,0.0026402,0.0029796,0.0033625,0.0037398,0.004081,0.0043562,0.0044909,0.0044,0.0040204,0.0032833,0.0020899,0.00034681,-0.0019947,-0.0049811,-0.008665,-0.013075,-0.018174,-0.023911,-0.030216,-0.036985,-0.044042,-0.0512,-0.058257,-0.064987,-0.071116,-0.07638,-0.080517,-0.083258,-0.084301,-0.08336,-0.080145,-0.074375,-0.065759,-0.054054,-0.03906,-0.020634,0.0013084,0.026765,0.055653,0.087806,0.12299,0.1609,0.20115,0.24332,0.28693,0.33143,0.37624,0.42071,0.46415,0.50581,0.54494,0.5808,0.6127,0.63998,0.66212,0.6787,0.68944,0.69422,0.69307,0.68619,0.67391,0.65671,0.63521,0.61012,0.58218,0.55215,0.52076,0.48871,0.4566,0.42493,0.39414,0.36453,0.33634,0.30971,0.28475,0.26153,0.2401,0.22049,0.20274,0.18687,0.17287,0.16065,0.15015,0.14124,0.1337,0.1273,0.12176,0.11683,0.11223,0.10771,0.10309,0.098237,0.09307,0.087543,0.081702,0.075636,0.069436,0.063205,0.057083,0.051206,0.045664,0.040524,0.035859,0.031716,0.028093,0.024963,0.022315,0.020124,0.018343,0.016919,0.015822,0.015023,0.014497,0.014195,0.014109,0.014198,0.014471,0.014586,0.014568,0.014469,0.014353,0.0078804,0.0090304,0.010334,0.01166,0.012766,0.01356,0.014071,0.01438,0.014667,0.015067,0.015659,0.016555,0.017684,0.018977,0.020303,0.021488,0.022401,0.022903,0.022953,0.022634,0.021952,0.020953,0.019614,0.017927,0.015939,0.0137,0.01135,0.0091036,0.0070926,0.0054376,0.0041219,0.003051,0.0021282,0.0011931,0.00013662,-0.0011246,-0.0027137,-0.0046543,-0.0069524,-0.0095334,-0.012239,-0.014989,-0.017647,-0.020143,-0.022412,-0.024373,-0.026019,-0.02729,-0.028114,-0.028492,-0.028404,-0.027946,-0.027201,-0.026261,-0.02528,-0.024318,-0.02343,-0.022717,-0.022206,-0.021995,-0.022016,-0.022183,-0.022367,-0.02235,-0.021979,-0.021209,-0.020095,-0.01883,-0.017543,-0.01639,-0.015486,-0.014829,-0.014375,-0.013988,-0.013454,-0.012599,-0.011229,-0.0092873,-0.0068615,-0.0041304,-0.0014258,0.0009488,0.0027569,0.0038363,0.0042186,0.004036,0.0035174,0.0029113,0.0023273,0.0018444,0.0014209,0.00097743,0.00045335,-0.00018888,-0.00089427,-0.0015971,-0.0022407,-0.0027081,-0.0029538,-0.002977,-0.0028334,-0.0026338,-0.0024498,-0.0023908,-0.0025668,-0.0029878,-0.0036923,-0.0046001,-0.0056537,-0.0067698,-0.0078056,-0.0087351,-0.0095272,-0.010214,-0.010897,-0.011599,-0.012434,-0.013407,-0.014509,-0.01577,-0.017157,-0.018682,-0.020331,-0.022068,-0.023904,-0.025799,-0.027712,-0.029605,-0.031395,-0.03295,-0.034231,-0.035216,-0.036018,-0.036866,-0.037899,-0.039409,-0.041448,-0.043981,-0.047018,-0.050303,-0.053753,-0.057086,-0.059982,-0.062366,-0.06391,-0.064614,-0.064506,-0.063663,-0.062445,-0.060968,-0.059479,-0.058162,-0.056873,-0.055598,-0.054087,-0.05223,-0.049995,-0.047326,-0.044398,-0.041384,-0.03841,-0.035613,-0.032971,-0.030434,-0.027858,-0.025084,-0.021997,-0.018597,-0.014906,-0.011126,-0.0075201,-0.0043366,-0.0017777,0.00014847,0.001542,0.002654,0.0039212,0.0057073,0.0083633,0.011992,0.016361,0.021033,0.025416,0.029074,0.031764,0.033388,0.034084,0.034072,0.033647,0.033124,0.032699,0.032498,0.032403,0.032165,0.031492,0.030716,0.021792,0.020765,0.019345,0.017869,0.01634,0.014776,0.013212,0.011713,0.010292,0.0089753,0.0077715,0.0066975,0.0057344,0.0048508,0.0040052,0.0031617,0.0022696,0.0012658,8.0584e-05,-0.0013527,-0.0031014,-0.0052502,-0.0078817,-0.011067,-0.014842,-0.019246,-0.024293,-0.029969,-0.036194,-0.042879,-0.0499,-0.057102,-0.064246,-0.071102,-0.077417,-0.082935,-0.087336,-0.090336,-0.091645,-0.090989,-0.088039,-0.082504,-0.07411,-0.06262,-0.047779,-0.029408,-0.0073839,0.01834,0.047777,0.080842,0.11737,0.15713,0.19981,0.24505,0.29241,0.34138,0.39138,0.44176,0.49178,0.54065,0.5875,0.63145,0.67164,0.70725,0.73754,0.76189,0.77982,0.79102,0.79534,0.79283,0.78374,0.7685,0.74772,0.72215,0.69265,0.66014,0.62553,0.58968,0.5534,0.51739,0.48219,0.44823,0.4158,0.38512,0.35625,0.32923,0.30409,0.28084,0.25946,0.23997,0.22235,0.20655,0.19251,0.18008,0.1691,0.15936,0.15058,0.14246,0.13471,0.12709,0.11934,0.11129,0.10284,0.093984,0.084749,0.075242,0.065617,0.056069,0.046781,0.037936,0.0297,0.022219,0.015591,0.0098782,0.0051022,0.0012435,-0.0017527,-0.0039743,-0.0055311,-0.0065505,-0.0071484,-0.0074463,-0.0075503,-0.0075788,-0.007581,-0.0076482,-0.0077758,-0.0082484,-0.0090752,-0.010166,-0.011431,-0.020029,-0.02096,-0.021723,-0.022117,-0.022149,-0.021858,-0.021341,-0.020801,-0.020301,-0.01993,-0.019744,-0.019687,-0.019784,-0.019937,-0.02006,-0.020081,-0.019858,-0.019431,-0.018837,-0.01817,-0.017581,-0.017148,-0.016913,-0.016804,-0.016614,-0.016177,-0.015277,-0.013713,-0.011418,-0.0084403,-0.0049827,-0.0013616,0.0021248,0.0051155,0.0073601,0.0087632,0.0092967,0.0090926,0.0083017,0.0070931,0.0056681,0.0041193,0.0025929,0.0011644,-0.00013047,-0.0012415,-0.0021969,-0.0029787,-0.0035854,-0.0040383,-0.0042691,-0.0042276,-0.0038719,-0.0031864,-0.0022956,-0.0013313,-0.00047502,8.8828e-05,0.00031757,0.00018195,-0.00023166,-0.00082013,-0.001512,-0.0022223,-0.0030001,-0.0039032,-0.0049795,-0.0062574,-0.0076161,-0.0089005,-0.0099328,-0.010501,-0.010501,-0.0098461,-0.0085259,-0.0066616,-0.0043828,-0.0018633,0.00070469,0.0031843,0.0053879,0.0072126,0.0085916,0.0094639,0.0098713,0.0098763,0.0095629,0.0090498,0.0083895,0.0076784,0.0069311,0.0061335,0.0052943,0.004396,0.0034934,0.0026394,0.0018673,0.0012312,0.00071193,0.00027742,-0.00010265,-0.0005361,-0.0010273,-0.0016108,-0.0022918,-0.003045,-0.0039167,-0.0048589,-0.0058905,-0.0070976,-0.0085038,-0.010261,-0.012366,-0.01484,-0.017667,-0.020689,-0.023847,-0.027011,-0.030083,-0.03301,-0.035645,-0.037916,-0.039753,-0.041153,-0.04223,-0.04317,-0.044232,-0.04569,-0.047779,-0.050517,-0.053901,-0.05775,-0.061923,-0.066385,-0.07099,-0.075819,-0.080751,-0.085592,-0.090211,-0.094158,-0.097314,-0.099456,-0.10047,-0.10067,-0.10013,-0.099298,-0.098476,-0.097748,-0.097399,-0.097135,-0.096816,-0.096249,-0.095099,-0.093435,-0.091164,-0.088443,-0.085508,-0.08236,-0.079176,-0.075952,-0.072689,-0.06933,-0.065689,-0.061631,-0.057114,-0.052214,-0.04718,-0.04235,-0.037992,-0.034262,-0.031201,-0.028648,-0.026484,-0.024437,-0.022302,-0.019956,-0.017256,-0.014268,-0.011077,-0.007866,-0.0049103,-0.0022922,-7.6608e-05,0.0018559,0.0036705,0.0054247,0.0072185,0.0089866,0.010645,0.012081,0.013111,0.013669,0.013711,0.013331,0.012792,0.01365,0.014602,0.015506,0.016361,0.017163,0.017895,0.018547,0.019113,0.019592,0.019967,0.020233,0.020391,0.020442,0.020379,0.02021,0.019946,0.0196,0.019175,0.018687,0.018149,0.017572,0.016962,0.016335,0.015702,0.015074,0.014461,0.01388,0.01334,0.01285,0.012416,0.012051,0.011754,0.011524,0.011358,0.011261,0.011221,0.011226,0.011271,0.011227,0.011386,0.011589,0.01183,0.012406,0.012998,0.013565,0.014086,0.014548,0.014915,0.015158,0.015282,0.015289,0.015161,0.014877,0.014446,0.013853,0.013051,0.011981,0.010618,0.0089117,0.0067864,0.0041642,0.0010053,-0.0027486,-0.0071619,-0.01228,-0.018089,-0.024562,-0.031654,-0.039278,-0.047279,-0.055487,-0.063704,-0.071703,-0.079193,-0.085874,-0.091435,-0.095544,-0.097842,-0.097979,-0.095625,-0.090462,-0.082173,-0.070478,-0.055148,-0.035997,-0.01288,0.014271,0.045438,0.080528,0.11939,0.16178,0.20737,0.25571,0.30633,0.35862,0.41187,0.46531,0.51807,0.56924,0.61782,0.66285,0.7034,0.7386,0.76768,0.79004,0.80528,0.81316,0.81364,0.80691,0.79334,0.7735,0.74808,0.71793,0.68397,0.64714,0.60838,0.56857,0.52849,0.48882,0.4501,0.41274,0.37704,0.34315,0.31117,0.28117,0.25316,0.22715,0.20317,0.18127,0.16148,0.14377,0.12815,0.11456,0.1029,0.093006,0.084681,0.077711,0.071847,0.066797,0.062319,0.058199,0.054256,0.050321,0.04632,0.042231,0.038079,0.033888,0.029745,0.025754,0.022016,0.018591,0.015561,0.012987,0.010901,0.0092852,0.0081276,0.0073961,0.0070387,0.0069743,0.0071403,0.007473,0.0079034,0.0083522,0.0087709,0.0088348,0.008546,0.007962,0.0071638,0.002685,0.0033878,0.0039202,0.0041274,0.0038155,0.0029819,0.0017899,0.0004774,-0.00057363,-0.0011366,-0.0011828,-0.00073309,3.373e-05,0.00099616,0.0020244,0.0030018,0.0039211,0.0047514,0.0054733,0.006143,0.0067648,0.0073877,0.0079714,0.0084225,0.0086731,0.0086516,0.008392,0.0080525,0.0077865,0.0078112,0.0082474,0.0091221,0.010414,0.011968,0.013631,0.015217,0.016551,0.017605,0.018394,0.018962,0.019356,0.019545,0.01954,0.019256,0.018582,0.017439,0.015817,0.013814,0.01159,0.0093474,0.0073769,0.0058838,0.0049962,0.0047155,0.0049789,0.0056002,0.0062997,0.0067252,0.0066966,0.0061053,0.0050037,0.0035459,0.0019724,0.0005358,-0.00061397,-0.0014743,-0.0020188,-0.0023185,-0.002365,-0.0020777,-0.0013162,0.0001003,0.0021978,0.0048372,0.0077976,0.010688,0.01317,0.01496,0.015985,0.01639,0.016403,0.016363,0.016556,0.017171,0.018305,0.019888,0.021789,0.023769,0.025578,0.02705,0.028059,0.028635,0.028896,0.029065,0.029373,0.029993,0.031016,0.03243,0.034077,0.035693,0.036986,0.03771,0.037675,0.036771,0.034975,0.032395,0.02912,0.025326,0.021151,0.016743,0.012262,0.0078091,0.0035204,-0.00051565,-0.0042906,-0.0077546,-0.010955,-0.013915,-0.01664,-0.019194,-0.021616,-0.024027,-0.026544,-0.029248,-0.032198,-0.035375,-0.038698,-0.04211,-0.045561,-0.049,-0.052394,-0.055678,-0.05884,-0.06192,-0.064826,-0.067612,-0.070171,-0.072402,-0.074238,-0.075476,-0.076143,-0.076182,-0.075527,-0.074421,-0.072895,-0.071258,-0.069682,-0.068211,-0.067046,-0.06598,-0.064903,-0.06371,-0.062196,-0.060511,-0.058636,-0.056735,-0.054969,-0.053298,-0.05178,-0.050285,-0.048656,-0.046776,-0.044508,-0.041824,-0.038762,-0.035416,-0.031966,-0.028599,-0.025357,-0.022254,-0.019259,-0.016228,-0.013136,-0.009897,-0.0065608,-0.0032649,-0.00010225,0.0026697,0.0048989,0.0065399,0.0075589,0.0080484,0.0080196,0.0075824,0.0068221,0.0056816,0.00411,0.0019827,-0.00070465,-0.0038732,-0.0072945,-0.010609,-0.013463,-0.015517,-0.016438,-0.016542,-0.016593,-0.016633,-0.016641,-0.016606,-0.016525,-0.016421,-0.016273,-0.016073,-0.01582,-0.015541,-0.015209,-0.01482,-0.01437,-0.013884,-0.013342,-0.012744,-0.012093,-0.011417,-0.010704,-0.0099555,-0.0091752,-0.008385,-0.0075766,-0.0067535,-0.0059204,-0.0050928,-0.0042698,-0.0034575,-0.0026625,-0.0018922,-0.0011525,-0.00045103,0.00020597,0.00082388,0.0013941,0.0019109,0.0023708,0.0027909,0.0031584,0.0034664,0.0037101,0.0039151,0.0040655,0.0041553,0.004181,0.0041742,0.0041172,0.0040021,0.0038222,0.003605,0.0033303,0.0029879,0.0025705,0.0021027,0.0015697,0.00096394,0.00027786,-0.00047388,-0.0013035,-0.0022211,-0.0032349,-0.0043371,-0.0055271,-0.0068061,-0.0081746,-0.0096275,-0.011153,-0.012748,-0.014409,-0.016133,-0.017891,-0.019672,-0.021461,-0.023252,-0.025007,-0.026715,-0.028365,-0.029948,-0.031426,-0.032784,-0.034009,-0.035093,-0.036,-0.036724,-0.037264,-0.037623,-0.037779,-0.037739,-0.037512,-0.03711,-0.036524,-0.03577,-0.03487,-0.033839,-0.032679,-0.031414,-0.030071,-0.028672,-0.027229,-0.025772,-0.024334,-0.022934,-0.021585,-0.02031,-0.019131,-0.018053,-0.017087,-0.016247,-0.015543,-0.014966,-0.014523,-0.014216,-0.014043,-0.013977,-0.014031,-0.014198,-0.014466,-0.014798,-0.015204,-0.015669,-0.016174,-0.01667,-0.017182,-0.017697,-0.018203,-0.018662,-0.019108,-0.019533,-0.019931,-0.020264,-0.020572,-0.020851,-0.021097,-0.021286,-0.021453,-0.021601,-0.021733,-0.02183,-0.021927,-0.022031,-0.022145,-0.022258,-0.022393,-0.022551,-0.022731,-0.02292,-0.023127,-0.02335,-0.023587,-0.023827,-0.024071,-0.024318,-0.024564,-0.024798,-0.025018,-0.02522,-0.025397,-0.025539,-0.025642,-0.0257,-0.02571,-0.025662,-0.025561,-0.025406,-0.0252,-0.024942,-0.024645,-0.024313,-0.023952,-0.02356,-0.023149,-0.022723,-0.022285,-0.021831,-0.021382,-0.020943,-0.020519,-0.020104,-0.019716,-0.019356,-0.019022,-0.018697,-0.018396,-0.018118,-0.017859,-0.0176,-0.017356,-0.017127,-0.016906,-0.016671,-0.016439,-0.016211,-0.015984,-0.015735,-0.015488,-0.015243,-0.014999,-0.014736,-0.014478,-0.014226,-0.013983,-0.013735,-0.01351,-0.013309,-0.013138,-0.012994,-0.012899,-0.012851,-0.012851,-0.012903,-0.013017,-0.013187,-0.01341,-0.013701,-0.014061,-0.014482,-0.014955,-0.015495,-0.016089,-0.016717,-0.017358,-0.018027,-0.0187,-0.019358,-0.019978,-0.020577,-0.021129,-0.021611,-0.021998,-0.022301,-0.022494,-0.022556,-0.022469,-0.022245,-0.021867,-0.021324,-0.020608,-0.019734,-0.018698,-0.017501,-0.016147,-0.014661,-0.013053,-0.011335,-0.0095213,-0.0076442,-0.0057174,-0.0037581,-0.0017851,0.00016713,0.0020807,0.0039357,0.0057119,0.0073762,0.008915,0.010317,0.011571,0.012655,0.013564,0.014299,0.014859,0.015232,0.015421,0.015438,0.015296,0.014994,0.014543,0.013966,0.013287,0.012511,0.011655,0.010747,0.0098154,0.0088662,0.0079136,0.0069802,0.0060866,0.0052339,0.0044297,0.0036884,0.003023,0.0024299,0.0019141,0.0014813,0.001136,0.00086857,0.00068311,0.00057695,0.00054646,0.00057822,0.00068036,0.00084535,0.001065,0.001324,0.0016364,0.0019913,0.0023758,0.0027713,0.003196,0.0036355,0.0040738,0.004489,0.0049023,0.0052985,0.0056602,0.0059632,0.0062304,0.0064478,0.0065999,0.0066634,0.0066625,0.006588,0.0064296,0.0061669,0.0058253,0.0054009,0.0048892,0.0042751,0.0035857,0.0028251,0.0019978,0.0010983,0.00015755,-0.00081396,-0.0018072,-0.0028232,-0.0038352,-0.0048341,-0.0058108,-0.0067608,-0.0076582,-0.0084931,-0.0092568,-0.0099413,-0.010529,-0.01102,-0.011415,-0.011707,-0.011887,-0.011962,-0.011939,-0.01181,-0.011576,-0.011256,-0.010869,-0.010408,-0.0098848,-0.0093214,-0.0087409,-0.0081335,-0.0075115,-0.0069008,-0.0063265,-0.0057766,-0.0052644,-0.0048137,-0.0044463,-0.0041454,-0.0039224,-0.0037968,-0.0037859,-0.0038699,-0.0040588,-0.0043664,-0.0048052,-0.0053544,-0.0060227,-0.0068176,-0.0077436,-0.0087753,-0.0099134,-0.011153,-0.012486,-0.013887,-0.015351,-0.016868,-0.018426,-0.020001,-0.021585,-0.023158,-0.024701,-0.026197,-0.027632,-0.028987,-0.030249,-0.031417,-0.032479,-0.033423,-0.034241,-0.034948,-0.035531,-0.035981,-0.036294,-0.036499,-0.036578,-0.036526,-0.036339,-0.036051,-0.035642,-0.035107,-0.034444,-0.03369,-0.032825,-0.03185,-0.030767,-0.029609,-0.028363,-0.027028,-0.025605,-0.024118,-0.022559,-0.020926,-0.019221,-0.017462,-0.015652,-0.013796,-0.0119,-0.0099745,-0.0080398,-0.0061006,-0.004161,-0.0022231,-0.00031443,0.0015604,0.0033956,0.0051904,0.0069004,0.008513,0.010018,0.011416,0.012661,0.013748,0.014676,0.01546,0.016059,0.016478,0.016727,0.016829,0.016757,0.016524,0.016151,0.015668,0.015053,0.014322,0.013496,0.012603,0.011629,0.010595,0.009522,0.0084384,0.0073352,0.0062281,0.0051325,0.0040649,0.0030182,0.0020012,0.0010233,9.4211e-05,-0.00078719,-0.0016162,-0.0023874,-0.0030948,-0.0037314,-0.0042957,-0.004787,-0.0052065,-0.0055455,-0.0058117,-0.0060148,-0.0061648,-0.0062496,-0.0062804,-0.0062696,-0.0062295,-0.0061426,-0.0060217,-0.0058809,-0.0057349,-0.0055636,-0.0053796,-0.005197,-0.0050308,-0.0048614,-0.0047007,-0.0045616,-0.0044571,-0.0043685,-0.0043044,-0.0042748,-0.0042897,-0.0043353,-0.0044191,-0.0045492,-0.004731,-0.0049525,-0.0052156,-0.0055213,-0.0058663,-0.0062405,-0.0066419,-0.0070685,-0.0075108,-0.007961,-0.0084139,-0.008863,-0.0092909,-0.0096925,-0.010063,-0.010398,-0.010681,-0.010916,-0.011104,-0.011248,-0.011332,-0.011365,-0.011352,-0.011301,-0.011196,-0.011053,-0.010883,-0.010698,-0.010483,-0.010257,-0.010031,-0.0098124,-0.0095892,-0.009377,-0.0091874,-0.009031,-0.0088956,-0.0087957,-0.00874,-0.0087349,-0.0087643,-0.008837,-0.0089573,-0.0091288,-0.0093373,-0.0095918,-0.0098955,-0.01025,-0.010639,-0.011066,-0.01153,-0.012024,-0.012534,-0.013063,-0.01361,-0.014169,-0.014726,-0.015285,-0.015839,-0.01638,-0.016892,-0.01738,-0.01784,-0.018269,-0.018653,-0.019,-0.019304,-0.01956,-0.01976,-0.019908,-0.02,-0.020034,-0.020008,-0.019926,-0.019783,-0.019575,-0.019309,-0.018984,-0.018598,-0.01815,-0.017662,-0.017135,-0.016569,-0.015969,-0.015365,-0.014756,-0.014142,-0.013522,-0.012931,-0.012361,-0.011809,-0.011272,-0.010784,-0.010337,-0.0099249,-0.0095357,-0.0091903,-0.0088741,-0.0085663,-0.0082465,-0.007923,-0.007585,-0.0072134,-0.0067894,-0.0063143,-0.0057824,-0.0051747,-0.004474,-0.0036783,-0.0027954,-0.0018189,-0.00074408,0.00042706,0.0016759,0.0030034,0.00441,0.005892,0.0074205,0.0089833,0.010565,0.012149,0.013697,0.015189,0.016609,0.017947,0.019171,0.02027,0.021234,0.022055,0.022709,0.023187,0.023484,0.023599,0.023523,0.02326,0.02282,0.02222,0.021465,0.020572,0.019559,0.018452,0.017264,0.016017,0.014734,0.013443,0.012159,0.010899,0.0096807,0.0085176,0.007418,0.0063896,0.0054382,0.0045656,0.0037791,0.0030798,0.0024666,0.0019264,0.0014661,0.0010768,0.00074628,0.00044615,0.00018703,-4.2616e-05,-0.000254,-0.00047593,-0.000682,-0.0008778,-0.001071,-0.0012909,-0.0015049,-0.0017198,-0.001943,-0.0021994,-0.0024486,-0.0026903,-0.0029258,-0.0031711,-0.0033859,-0.0035693,-0.0037216,-0.0038498,-0.0039163,-0.0039164,-0.0038483,-0.0037141,-0.0034921,-0.0031884,-0.0028123,-0.0023703,-0.0018568,-0.0012825,-0.00066039,1.6822e-06,0.00069599,0.0014043,0.0021075,0.0027952,0.0034555,0.0040729,0.0046324,0.0051257,0.0055399,0.0058611,0.006078,0.0061894,0.0061939,0.0060923,0.0058873,0.0055877,0.0051972,0.0047201,0.0041631,0.0035406,0.0028629,0.0021422,0.0013889,0.00061645,-0.00017472,-0.00098279,-0.001804,-0.002622,-0.0034291,-0.0042088,-0.0049424,-0.0056022,-0.0061832,-0.0066801,-0.007091,-0.0074036,-0.0076264,-0.0077644,-0.0078232,-0.0077978,-0.0077032,-0.0075546,-0.0073666,-0.0071406,-0.0068871,-0.0066163,-0.006338,-0.0060527,-0.0057664,-0.0054911,-0.0052373,-0.0050058,-0.0047927,-0.0046016,-0.0044362,-0.0042969,-0.0041831,-0.0041042,-0.0040692,-0.0040789,-0.0041312,-0.004229,-0.0043759,-0.0045701,-0.0048177,-0.005125,-0.0054935,-0.0059057,-0.0063532,-0.0068186,-0.0072832,-0.0077157,-0.0081179,-0.0084871,-0.0088216,-0.0090985,-0.0093274,-0.0095012,-0.0096109,-0.0096295,-0.0095736,-0.0094505,-0.0092711,-0.0090305,-0.0087558,-0.0084782,-0.0080049,-0.0074823,-0.006931,-0.0061376,-0.0053386,-0.0045642,-0.0038298,-0.0031484,-0.0025218,-0.001958,-0.0014663,-0.0010549,-0.00073586,-0.00053484,-0.00047334,-0.00057829,-0.00088827,-0.0014692,-0.0023843,-0.0037026,-0.005496,-0.0078475,-0.010817,-0.014445,-0.018752,-0.023747,-0.029395,-0.035613,-0.042275,-0.049213,-0.056224,-0.063066,-0.069477,-0.075189,-0.079948,-0.083488,-0.085541,-0.08583,-0.084095,-0.080058,-0.073449,-0.064003,-0.051517,-0.035815,-0.016772,0.0056869,0.031552,0.060759,0.093172,0.12859,0.16673,0.20724,0.24971,0.29366,0.33856,0.3838,0.42872,0.47259,0.51463,0.55405,0.59009,0.62198,0.64907,0.6708,0.68674,0.69661,0.70027,0.69781,0.68945,0.67557,0.65671,0.63355,0.60685,0.57738,0.54591,0.51323,0.48005,0.44697,0.41455,0.38324,0.35338,0.32519,0.29882,0.27435,0.25179,0.23117,0.21248,0.19574,0.18094,0.16804,0.15698,0.14765,0.13987,0.13344,0.1281,0.12357,0.11956,0.11578,0.11197,0.10791,0.10343,0.098437,0.092911,0.086883,0.080433,0.073686,0.066793,0.059901,0.053153,0.046683,0.040612,0.035021,0.029963,0.02546,0.021498,0.018034,0.015005,0.012342,0.0099666,0.007803,0.0057903,0.0038593,0.0019766,5.0741e-05,-0.0018743,-0.0041648,-0.0068111,-0.0096509,-0.012519,-0.019253,-0.02028,-0.021365,-0.0224,-0.023372,-0.024183,-0.024687,-0.024857,-0.024601,-0.023955,-0.023024,-0.021867,-0.020639,-0.019382,-0.018153,-0.01703,-0.016017,-0.015221,-0.014757,-0.014727,-0.015186,-0.015979,-0.016908,-0.017692,-0.018028,-0.017725,-0.016755,-0.015277,-0.013622,-0.012126,-0.011135,-0.01087,-0.011343,-0.012424,-0.013813,-0.015129,-0.016052,-0.016291,-0.015721,-0.014337,-0.012227,-0.0096574,-0.0069221,-0.0043325,-0.0021715,-0.0005704,0.0003725,0.00066411,0.00038223,-0.00039359,-0.0014501,-0.0026071,-0.0037,-0.0046364,-0.0054152,-0.0060195,-0.0064498,-0.0067016,-0.0067428,-0.0065921,-0.0062676,-0.0058086,-0.0053139,-0.0048656,-0.0045812,-0.0045115,-0.0046136,-0.0048298,-0.0050409,-0.0051335,-0.0050364,-0.004676,-0.0040923,-0.0033328,-0.0024784,-0.0016709,-0.00097456,-0.00036483,0.0002716,0.0011281,0.0022911,0.0038479,0.0057983,0.0080292,0.010364,0.012579,0.014458,0.015842,0.016593,0.016734,0.016351,0.015601,0.014667,0.013719,0.012917,0.012351,0.012056,0.012037,0.012269,0.012709,0.013269,0.013805,0.014205,0.014374,0.014283,0.01395,0.013391,0.012701,0.011973,0.01125,0.010614,0.01005,0.0095995,0.0091811,0.0086582,0.0079358,0.006857,0.0053226,0.0033304,0.00095216,-0.001562,-0.0040074,-0.006173,-0.007927,-0.0092657,-0.010334,-0.011399,-0.01281,-0.01492,-0.017989,-0.022199,-0.027502,-0.033713,-0.040585,-0.047694,-0.054795,-0.061551,-0.067728,-0.073303,-0.078121,-0.082392,-0.086231,-0.089791,-0.093438,-0.097082,-0.10077,-0.10429,-0.10725,-0.10958,-0.11089,-0.11115,-0.1104,-0.10865,-0.10619,-0.10311,-0.099583,-0.095799,-0.091655,-0.087198,-0.082357,-0.077137,-0.071634,-0.066,-0.060522,-0.055505,-0.051216,-0.047849,-0.045464,-0.043879,-0.042736,-0.041673,-0.04034,-0.038614,-0.036461,-0.034026,-0.03154,-0.029124,-0.02695,-0.025062,-0.023468,-0.022153,-0.020937,-0.019692,-0.018187,-0.01616,-0.013539,-0.010287,-0.0066221,-0.0028579,0.0006611,0.0035626,0.0056465,0.006776,0.0069259,0.0063142,0.0062444,0.0061399,0.0059893,0.0058012,0.0055859,0.0053522,0.0050858,0.0047986,0.004504,0.0042104,0.0039082,0.0036081,0.0033219,0.0030575,0.0028138,0.0026046,0.0024435,0.002335,0.0022786,0.0022804,0.0023455,0.0024699,0.0026539,0.0029023,0.0032191,0.0035959,0.0040318,0.0045251,0.0050723,0.0056555,0.0062717,0.0069162,0.0075823,0.0082455,0.0089007,0.0095392,0.010152,0.010714,0.011227,0.011691,0.012105,0.012451,0.012736,0.012964,0.013139,0.013249,0.013308,0.013328,0.013322,0.013284,0.013226,0.013162,0.0131,0.013033,0.012976,0.01294,0.012939,0.012967,0.013033,0.013142,0.013298,0.013488,0.013713,0.013973,0.014268,0.014591,0.014938,0.015307,0.015696,0.016094,0.016494,0.016891,0.017278,0.017649,0.018001,0.01833,0.018629,0.018898,0.019135,0.019333,0.019487,0.0196,0.019675,0.019712,0.019709,0.019675,0.019617,0.019534,0.019421,0.019283,0.019122,0.018932,0.018707,0.01845,0.018162,0.017839,0.017476,0.017074,0.016636,0.016155,0.015624,0.015045,0.014419,0.01374,0.013004,0.01222,0.011398,0.010536,0.0096394,0.0087251,0.0078054,0.0068834,0.0059635,0.0050695,0.004215,0.0034021,0.0026324,0.0019286,0.0012978,0.00073353,0.00022918,-0.00019604,-0.00054041,-0.00081446,-0.0010294,-0.0011693,-0.0012403,-0.0012624,-0.0012567,-0.0012156,-0.0011528,-0.0010918,-0.0010543,-0.0010302,-0.0010303,-0.0010738,-0.0011786,-0.0013321,-0.001543,-0.0018261,-0.0021933,-0.0026269,-0.003128,-0.0037011,-0.0043487,-0.0050474,-0.0057931,-0.0065836,-0.0074154,-0.0082632,-0.0091205,-0.0099803,-0.010836,-0.011666,-0.012471,-0.013247,-0.01399,-0.014687,-0.015341,-0.015947,-0.016501,-0.016996,-0.017436,-0.017821,-0.018149,-0.018417,-0.018633,-0.018793,-0.018894,-0.018937,-0.018929,-0.018867,-0.01875,-0.018577,-0.018353,-0.018072,-0.017731,-0.017329,-0.016872,-0.01636,-0.015789,-0.015159,-0.014476,-0.013736,-0.012933,-0.012066,-0.011149,-0.010183,-0.009171,-0.0081148,-0.0070353,-0.0059352,-0.004817,-0.0036809,-0.0025553,-0.0014458,-0.0003574,0.00070969,0.0017255,0.0026895,0.0036036,0.0044727,0.0052675,0.0059901,0.0066446,0.007238,0.0077441,0.0081709,0.0085289,0.0088291,0.0090481,0.0091957,0.0092841,0.0093248,0.0092983,0.0092189,0.0091026,0.0089616,0.0087799,0.0085718,0.0083531,0.0081348,0.0079065,0.0076853,0.0074895,0.0073276,0.0071908,0.0070904,0.0070359,0.0070241,0.0070442,0.0071015,0.0072017,0.0073367,0.0075008,0.0076967,0.0079258,0.0081734,0.0084348,0.0087084,0.0089926,0.0092722,0.0095505,0.0098295,0.010111,0.010383,0.010652,0.010921,0.011188,0.011442,0.011693,0.011944,0.012197,0.01244,0.012685,0.012934,0.013185,0.013423,0.013658,0.013889,0.014119,0.01433,0.014536,0.014739,0.01494,0.015122,0.015294,0.015454,0.015601,0.015715,0.015802,0.015858,0.015884,0.015867,0.015817,0.015732,0.015616,0.015461,0.015275,0.015057,0.014811,0.014542,0.014263,0.013982,0.013707,0.01345,0.013222,0.013024,0.01286,0.012736,0.012662,0.012635,0.012656,0.012724,0.01284,0.012992,0.013163,0.013342,0.013525,0.013695,0.01384,0.013944,0.014009,0.014021,0.013967,0.013829,0.013612,0.01331,0.012917,0.012421,0.01184,0.011179,0.010442,0.0096186,0.0087379,0.0078091,0.0068415,0.0058289,0.0048063,0.0037897,0.0027946,0.0018174,0.00089585,4.6586e-05,-0.00071744,-0.001407,-0.0019918,-0.0024621,-0.0028111,-0.0030563,-0.0031744,-0.0031623,-0.0030226,-0.002784,-0.0024368,-0.0019916,-0.0014612,-0.00087748,-0.00023356,0.00046065,0.0011947,0.0019444,0.0027156,0.0034965,0.0042748,0.0050341,0.0057804,0.0065065,0.0072073,0.0078836,0.0085426,0.0091799,0.0097907,0.010383,0.010957,0.011506,0.012026,0.012535,0.013028,0.013501,0.013952,0.014399,0.014826,0.015224,0.015584,0.015916,0.016195,0.016407,0.016539,0.016599,0.016558,0.016405,0.01613,0.015739,0.015214,0.014551,0.013756,0.012848,0.011825,0.0107,0.0094814,0.0081912,0.0068298,0.0054044,0.0039245,0.0024111,0.00087757,-0.00065808,-0.002175,-0.0036437,-0.0050434,-0.0063586,-0.0075765,-0.0086789,-0.009652,-0.01049,-0.011188,-0.011735,-0.01212,-0.012347,-0.01242,-0.012344,-0.012117,-0.011756,-0.011281,-0.010715,-0.010069,-0.0093678,-0.0086405,-0.0079202,-0.0072085,-0.0065242,-0.0058849,-0.0053202,-0.0048163,-0.0043762,-0.0039991,-0.0037012,-0.0034523,-0.0032445,-0.003077,-0.0029802,-0.0029428,-0.002966,-0.0030449,-0.003191,-0.00337,-0.0035528,-0.0037184,-0.0038805,-0.0040394,-0.0041991,-0.0043612,-0.004533,-0.0046984,-0.004818,-0.0048477,-0.0047562,-0.0045355,-0.0041741,-0.0036711,-0.0030302,-0.0022787,-0.0014194,-0.00045293,0.0006234,0.0017777,0.002994,0.0042558,0.0055566,0.0068634,0.008166,0.0094576,0.010743,0.011996,0.013205,0.014362,0.015474,0.016522,0.017497,0.018386,0.019186,0.019857,0.020378,0.020736,0.020943,0.02099,0.020881,0.020609,0.020176,0.01954,0.018676,0.017581,0.016306,0.014887,0.013398,0.011913,0.010511,0.0091986,0.0079681,0.0067984,0.0056925,0.00462,0.0035815,0.0025902,0.001683,0.0008541,9.754e-05,-0.00059935,-0.0012343,-0.0018213,-0.0023649,-0.0028647,-0.0033111,-0.0037012,-0.0040449,-0.0043559,-0.0046482,-0.0049194,-0.0051812,-0.0054458,-0.005732,-0.0060308,-0.0063564,-0.0067217,-0.0071451,-0.0076019,-0.0080932,-0.0086224,-0.0092053,-0.0098167,-0.010454,-0.011106,-0.011761,-0.012362,-0.01287,-0.01326,-0.013523,-0.013645,-0.013638,-0.013522,-0.013321,-0.013033,-0.012656,-0.012186,-0.011623,-0.010965,-0.010221,-0.0094032,-0.0085367,-0.0076357,-0.0067081,-0.0057586,-0.0048004,-0.003842,-0.00289,-0.0019541,-0.0010566,-0.00021262,0.00057186,0.0012944,0.0019437,0.0025161,0.0030172,0.0034533,0.00382,0.0041164,0.0043519,0.0045375,0.0046767,0.0047703,0.004833,0.0048793,0.0049178,0.0049445,0.004972,0.0050131,0.0050789,0.0051609,0.0052714,0.0054233,0.0056282,0.0058707,0.006154,0.0064804,0.0068532,0.0072489,0.0076643,0.008097,0.0085477,0.008995,0.0094342,0.0098617,0.010276,0.01066,0.011011,0.011325,0.011596,0.011815,0.011979,0.012087,0.012132,0.012117,0.012047,0.011925,0.011746,0.011518,0.011245,0.010932,0.010568,0.010167,0.0097336,0.0092726,0.0087772,0.0082605,0.0077286,0.0071875,0.0066341,0.0060832,0.0055436,0.0050239,0.0045273,0.004067,0.0036492,0.003279,0.0029624,0.0027077,0.0025162,0.0023885,0.0023324,0.0023497,0.0024339,0.0025779,0.0027887,0.0030624,0.0033871,0.0037515,0.0041642,0.0046178,0.0050958,0.0055813,0.0060801,0.0065798,0.0070596,0.0074998,0.0079061,0.0082664,0.0085626,0.0087776,0.0089196,0.0089786,0.0089392,0.008787,0.0085315,0.0081651,0.0076783,0.0070646,0.0063414,0.0055092,0.0045696,0.0035264,0.0024061,0.0012145,-4.0257e-05,-0.0013482,-0.0026774,-0.0040214,-0.0053706,-0.0067156,-0.0080257,-0.0093001,-0.010534,-0.01172,-0.01283,-0.013861,-0.014808,-0.015664,-0.016403,-0.017029,-0.017542,-0.017949,-0.01824,-0.018423,-0.018507,-0.018504,-0.018414,-0.018241,-0.017998,-0.017698,-0.017351,-0.016963,-0.016547,-0.016121,-0.015705,-0.015304,-0.014927,-0.014588,-0.014307,-0.014078,-0.013901,-0.013776,-0.013717,-0.013711,-0.013748,-0.013821,-0.013932,-0.014069,-0.014215,-0.014357,-0.014489,-0.014604,-0.014685,-0.014714,-0.014676,-0.014568,-0.014372,-0.014071,-0.013648,-0.013119,-0.012479,-0.011723,-0.010845,-0.0098719,-0.0088078,-0.0076548,-0.00641,-0.0051107,-0.0037672,-0.0023899,-0.00098456,0.00040899,0.001778,0.0031103,0.0043941,0.0055923,0.0066926,0.0076851,0.0085575,0.009287,0.0098746,0.010325,0.010633,0.010792,0.010813,0.010707,0.010474,0.010113,0.0096461,0.0090943,0.0084615,0.0077582,0.007012,0.0062508,0.0054811,0.0047165,0.0039845,0.0033104,0.0026942,0.0021421,0.0016722,0.0013014,0.0010214,0.00083643,0.00076018,0.00080421,0.00095316,0.0012087,0.0015746,0.0020522,0.0026153,0.0032655,0.0039998,0.0048126,0.0056687,0.0065707,0.0075092,0.0084732,0.0094227,0.010369,0.011308,0.012233,0.013108,0.013951,0.014759,0.015525,0.016208,0.01683,0.01739,0.017889,0.018294,0.018636,0.018924,0.019163,0.019329,0.019444,0.019516,0.019551,0.019525,0.019459,0.019364,0.01925,0.019101,0.018935,0.018762,0.018592,0.018412,0.01824,0.018085,0.017967,0.017151,0.016406,0.015742,0.015198,0.014809,0.014589,0.014539,0.014652,0.014908,0.015301,0.015803,0.016378,0.01697,0.017541,0.018024,0.018344,0.018418,0.018186,0.017563,0.016467,0.014815,0.012559,0.0096283,0.0059664,0.0015331,-0.0036649,-0.0096173,-0.016278,-0.023555,-0.031296,-0.039333,-0.047463,-0.055434,-0.06296,-0.069758,-0.075525,-0.079924,-0.082615,-0.083267,-0.081549,-0.077104,-0.069601,-0.058754,-0.044309,-0.026031,-0.0037668,0.022552,0.052914,0.087266,0.12544,0.16715,0.21206,0.25976,0.30975,0.36146,0.41422,0.46734,0.52003,0.57141,0.62056,0.66659,0.70857,0.74563,0.77698,0.80195,0.82004,0.83087,0.83428,0.8303,0.81918,0.80133,0.77737,0.74806,0.7143,0.67702,0.63718,0.59573,0.55357,0.51147,0.47012,0.43005,0.39172,0.35543,0.32139,0.28974,0.26055,0.23387,0.20972,0.18808,0.16893,0.15218,0.13773,0.1254,0.11498,0.10621,0.098806,0.092463,0.086874,0.081753,0.076849,0.071965,0.066946,0.061699,0.056196,0.050465,0.044563,0.038585,0.032647,0.026873,0.021357,0.016192,0.011455,0.0072139,0.0034765,0.00025464,-0.0024586,-0.0046739,-0.0064557,-0.007843,-0.0088748,-0.0095759,-0.010021,-0.010243,-0.010273,-0.010126,-0.010118,-0.010212,-0.010397,-0.010649,-0.016851,-0.017366,-0.017859,-0.018292,-0.018772,-0.019237,-0.019593,-0.01981,-0.019843,-0.019672,-0.019286,-0.018607,-0.017735,-0.016711,-0.015671,-0.014801,-0.014208,-0.013947,-0.013924,-0.013944,-0.013853,-0.01346,-0.01273,-0.011765,-0.010738,-0.0098677,-0.0092965,-0.0091162,-0.009379,-0.010028,-0.010978,-0.012086,-0.013092,-0.013761,-0.013869,-0.013303,-0.012101,-0.010362,-0.0083202,-0.0062769,-0.0044634,-0.0031121,-0.0022673,-0.0018821,-0.001838,-0.0019102,-0.0020087,-0.0020868,-0.002152,-0.0022934,-0.0024785,-0.0026948,-0.002803,-0.002629,-0.0021054,-0.0011902,5.4147e-05,0.0014909,0.0030069,0.0044,0.0055995,0.0065718,0.0073032,0.0078581,0.0082715,0.0086157,0.0089693,0.0093336,0.0097602,0.010236,0.010727,0.011205,0.011612,0.011935,0.012187,0.012352,0.012475,0.012582,0.012707,0.01291,0.013163,0.01343,0.013656,0.013787,0.013904,0.014123,0.014604,0.015503,0.016819,0.018459,0.020208,0.021774,0.022943,0.023498,0.023354,0.022535,0.021145,0.019414,0.017538,0.015712,0.014086,0.012677,0.011486,0.010415,0.0093609,0.0082392,0.0069402,0.005451,0.0037785,0.0019212,-4.2077e-05,-0.0021127,-0.0042233,-0.0063987,-0.008727,-0.011218,-0.013926,-0.016817,-0.019814,-0.022831,-0.025681,-0.02824,-0.030396,-0.032071,-0.033279,-0.034126,-0.034813,-0.035606,-0.036758,-0.038429,-0.040721,-0.043521,-0.046646,-0.049926,-0.053089,-0.056062,-0.058719,-0.061039,-0.063139,-0.064916,-0.066475,-0.067792,-0.068832,-0.069752,-0.070425,-0.070985,-0.071471,-0.071779,-0.072022,-0.072014,-0.071714,-0.071052,-0.06979,-0.067963,-0.065517,-0.06257,-0.059372,-0.05608,-0.052965,-0.050168,-0.047772,-0.045845,-0.044312,-0.043044,-0.041865,-0.040566,-0.038987,-0.037072,-0.034825,-0.032359,-0.029768,-0.027076,-0.024365,-0.021614,-0.018852,-0.016108,-0.013364,-0.010705,-0.0081857,-0.0059072,-0.0040517,-0.0027191,-0.0020036,-0.0018329,-0.0020504,-0.0024287,-0.002684,-0.0025763,-0.0019516,-0.00080119,0.00071838,0.0023592,0.0038263,0.0048693,0.0053126,0.0057271,0.0060395,0.0062762,0.0064373,0.0065103,0.0064836,0.0063597,0.0061438,0.0058303,0.0054208,0.0049345,0.0043933,0.0038063,0.0031812,0.0025418,0.0019151,0.0013237,0.0007808,0.00031689,-3.9498e-05,-0.00026339,-0.00036227,-0.00032974,-0.00016151,0.00015831,0.0006072,0.0011855,0.0018952,0.0027585,0.0037437,0.0048368,0.0060218,0.0073087,0.0086527,0.01003,0.011419,0.012829,0.014218,0.015562,0.016836,0.018048,0.01916,0.02015,0.020999,0.02171,0.022257,0.022623,0.022797,0.02278,0.02256,0.022135,0.02151,0.020697,0.019701,0.018538,0.017225,0.015775,0.014199,0.012517,0.010753,0.0089212,0.0070403,0.0051421,0.0032597,0.0014135,-0.00037404,-0.0020729,-0.0036561,-0.0051131,-0.0064295,-0.0075862,-0.0085657,-0.0093661,-0.0099742,-0.010379,-0.010571,-0.010559,-0.010333,-0.0098963,-0.0092529,-0.0084286,-0.0074204,-0.0062442,-0.0049198,-0.0034883,-0.0019514,-0.00033389,0.0013367,0.003012,0.0046931,0.0063583,0.007986,0.0095331,0.011009,0.012399,0.013688,0.014838,0.015856,0.016735,0.017472,0.018043,0.018467,0.018757,0.018931,0.018984,0.018936,0.018806,0.018613,0.018362,0.018061,0.017733,0.017399,0.017069,0.016744,0.016442,0.016184,0.015977,0.015814,0.015709,0.015676,0.015719,0.015823,0.01599,0.01622,0.016505,0.016825,0.017174,0.01755,0.017944,0.018346,0.018754,0.019163,0.019562,0.019945,0.020304,0.020628,0.020903,0.021128,0.021297,0.021405,0.021445,0.021429,0.021356,0.021224,0.021033,0.0208,0.020527,0.020216,0.019874,0.019518,0.019151,0.018772,0.018386,0.018,0.017612,0.017217,0.016822,0.016437,0.016061,0.015693,0.015337,0.014996,0.014658,0.014311,0.013947,0.013564,0.01315,0.012698,0.012208,0.01169,0.01114,0.010556,0.0099361,0.0092933,0.0086238,0.0079247,0.0071961,0.0064576,0.0057109,0.0049563,0.0041938,0.0034432,0.0027043,0.0019763,0.0012597,0.0005794,-5.9064e-05,-0.000651,-0.0011941,-0.0016679,-0.0020749,-0.0024212,-0.0027154,-0.0029474,-0.0031235,-0.0032498,-0.0033302,-0.003353,-0.0033218,-0.0032419,-0.003119,-0.0029494,-0.002744,-0.002516,-0.0022768,-0.0020286,-0.0017828,-0.0015485,-0.0013284,-0.001117,-0.00091563,-0.00072547,-0.00054503,-0.00037022,-0.00020321,-4.6844e-05,9.7585e-05,0.00023243,0.000358,0.00047415,0.00057791,0.00066989,0.00075113,0.00082265,0.0008796,0.00092403,0.00096201,0.00099868,0.0010269,0.0010451,0.0010551,0.0010575,0.0010392,0.00099536,0.00092984,0.00084792,0.00074296,0.00061561,0.00047576,0.00033443,0.00019224,5.2408e-05,-7.3885e-05,-0.00017594,-0.00025115,-0.0002994,-0.00031202,-0.00027858,-0.00018997,-4.2114e-05,0.00017667,0.00047667,0.00086495,0.0013361,0.0018885,0.0025184,0.0032217,0.0039855,0.0048033,0.005668,0.0065714,0.007496,0.0084278,0.0093507,0.010247,0.011096,0.011882,0.012594,0.01322,0.013748,0.014171,0.014482,0.014678,0.014748,0.014691,0.014506,0.014204,0.013785,0.01326,0.01264,0.011954,0.011207,0.010414,0.0095912,0.0087695,0.0079531,0.0071561,0.0063939,0.0057001,0.0050749,0.0045267,0.0040611,0.0036985,0.0034257,0.0032359,0.0031211,0.0030876,0.0031178,0.0031983,0.0033147,0.0034612,0.0036177,0.0037625,0.0038732,0.0039338,0.003931,0.0038484,0.0036735,0.0034001,0.0030358,0.0025787,0.0020287,0.0013877,0.00067484,-0.00010437,-0.00094258,-0.0018287,-0.0027353,-0.0036493,-0.0045582,-0.0054461,-0.0062897,-0.0070789,-0.0078047,-0.0084509,-0.0090021,-0.009451,-0.0097928,-0.010016,-0.01012,-0.010113,-0.010003,-0.0097913,-0.0094923,-0.0091186,-0.0086827,-0.008187,-0.0076463,-0.0070741,-0.0064843,-0.0058851,-0.0052926,-0.0047222,-0.004189,-0.0037046,-0.0032794,-0.0029227,-0.0026412,-0.0024409,-0.0023191,-0.0022731,-0.002299,-0.0023973,-0.0025593,-0.0027762,-0.0030398,-0.0033494,-0.0036956,-0.0040666,-0.0044507,-0.0048458,-0.0052447,-0.0056331,-0.0059967,-0.0063305,-0.0066296,-0.0068788,-0.007064,-0.0071826,-0.0072387,-0.0072253,-0.007138,-0.0069818,-0.0067687,-0.006496,-0.0061593,-0.0057592,-0.0053032,-0.0047877,-0.004211,-0.0035786,-0.0029063,-0.0022021,-0.0014736,-0.00072843,2.0611e-05,0.00076966,0.0015162,0.0022583,0.0029858,0.0036932,0.0043755,0.005031,0.0056512,0.0062341,0.0067781,0.0072832,0.0077657,0.008161,0.0084957,0.0087689,0.0083479,0.0077553,0.0070416,0.0062629,0.005474,0.0047355,0.0040997,0.0035981,0.0032491,0.0030629,0.0030297,0.0031038,0.0032288,0.003337,0.0033449,0.0031382,0.0026193,0.0016967,0.00028579,-0.0017129,-0.0043465,-0.0076379,-0.011581,-0.016173,-0.02133,-0.02694,-0.032864,-0.038975,-0.045067,-0.050926,-0.056328,-0.061078,-0.064903,-0.067542,-0.06873,-0.068244,-0.065798,-0.061137,-0.054021,-0.044267,-0.031655,